5 Hz
Potential/V, Diff(i/A), For(i/A), Rev(i/A)
0.496, -2.000e-7, 6.133e-7, 8.133e-7
0.492, -1.917e-7, 5.851e-7, 7.768e-7
0.488, -1.836e-7, 5.598e-7, 7.434e-7
0.484, -1.757e-7, 5.375e-7, 7.132e-7
0.480, -1.677e-7, 5.182e-7, 6.859e-7
0.476, -1.597e-7, 5.018e-7, 6.615e-7
0.472, -1.555e-7, 4.874e-7, 6.428e-7
0.468, -1.569e-7, 4.734e-7, 6.303e-7
0.464, -1.625e-7, 4.589e-7, 6.214e-7
0.460, -1.688e-7, 4.444e-7, 6.132e-7
0.456, -1.735e-7, 4.304e-7, 6.039e-7
0.452, -1.761e-7, 4.173e-7, 5.934e-7
0.448, -1.766e-7, 4.054e-7, 5.820e-7
0.444, -1.758e-7, 3.951e-7, 5.709e-7
0.440, -1.741e-7, 3.860e-7, 5.601e-7
0.436, -1.723e-7, 3.778e-7, 5.500e-7
0.432, -1.710e-7, 3.695e-7, 5.404e-7
0.428, -1.714e-7, 3.606e-7, 5.319e-7
0.424, -1.736e-7, 3.507e-7, 5.243e-7
0.420, -1.777e-7, 3.399e-7, 5.176e-7
0.416, -1.837e-7, 3.283e-7, 5.120e-7
0.412, -1.909e-7, 3.161e-7, 5.070e-7
0.408, -1.990e-7, 3.036e-7, 5.027e-7
0.404, -2.079e-7, 2.912e-7, 4.991e-7
0.400, -2.169e-7, 2.791e-7, 4.960e-7
0.396, -2.262e-7, 2.671e-7, 4.932e-7
0.392, -2.369e-7, 2.543e-7, 4.911e-7
0.388, -2.504e-7, 2.392e-7, 4.896e-7
0.384, -2.691e-7, 2.200e-7, 4.890e-7
0.380, -2.920e-7, 1.974e-7, 4.893e-7
0.376, -3.168e-7, 1.737e-7, 4.905e-7
0.372, -3.415e-7, 1.513e-7, 4.927e-7
0.368, -3.670e-7, 1.290e-7, 4.960e-7
0.364, -3.966e-7, 1.040e-7, 5.007e-7
0.360, -4.334e-7, 7.350e-8, 5.069e-7
0.356, -4.800e-7, 3.517e-8, 5.152e-7
0.352, -5.360e-7, -1.027e-8, 5.257e-7
0.348, -5.992e-7, -6.015e-8, 5.391e-7
0.344, -6.711e-7, -1.162e-7, 5.549e-7
0.340, -7.530e-7, -1.806e-7, 5.724e-7
0.336, -8.421e-7, -2.507e-7, 5.913e-7
0.332, -9.438e-7, -3.313e-7, 6.125e-7
0.328, -1.061e-6, -4.238e-7, 6.371e-7
0.324, -1.199e-6, -5.296e-7, 6.691e-7
0.320, -1.362e-6, -6.524e-7, 7.092e-7
0.316, -1.549e-6, -7.919e-7, 7.568e-7
0.312, -1.759e-6, -9.478e-7, 8.113e-7
0.308, -1.994e-6, -1.123e-6, 8.710e-7
0.304, -2.256e-6, -1.321e-6, 9.356e-7
0.300, -2.553e-6, -1.545e-6, 1.008e-6
0.296, -2.889e-6, -1.801e-6, 1.089e-6
0.292, -3.264e-6, -2.086e-6, 1.179e-6
0.288, -3.685e-6, -2.407e-6, 1.278e-6
0.284, -4.150e-6, -2.762e-6, 1.388e-6
0.280, -4.665e-6, -3.157e-6, 1.507e-6
0.276, -5.232e-6, -3.595e-6, 1.637e-6
0.272, -5.854e-6, -4.079e-6, 1.776e-6
0.268, -6.532e-6, -4.608e-6, 1.924e-6
0.264, -7.268e-6, -5.188e-6, 2.079e-6
0.260, -8.060e-6, -5.818e-6, 2.242e-6
0.256, -8.902e-6, -6.494e-6, 2.409e-6
0.252, -9.795e-6, -7.217e-6, 2.578e-6
0.248, -1.073e-5, -7.988e-6, 2.747e-6
0.244, -1.171e-5, -8.800e-6, 2.911e-6
0.240, -1.272e-5, -9.652e-6, 3.065e-6
0.236, -1.374e-5, -1.053e-5, 3.207e-6
0.232, -1.476e-5, -1.143e-5, 3.330e-6
0.228, -1.577e-5, -1.234e-5, 3.428e-6
0.224, -1.676e-5, -1.326e-5, 3.495e-6
0.220, -1.770e-5, -1.417e-5, 3.528e-6
0.216, -1.859e-5, -1.507e-5, 3.517e-6
0.212, -1.939e-5, -1.593e-5, 3.461e-6
0.208, -2.009e-5, -1.674e-5, 3.354e-6
0.204, -2.068e-5, -1.749e-5, 3.194e-6
0.200, -2.114e-5, -1.816e-5, 2.979e-6
0.196, -2.146e-5, -1.875e-5, 2.711e-6
0.192, -2.164e-5, -1.925e-5, 2.386e-6
0.188, -2.166e-5, -1.964e-5, 2.013e-6
0.184, -2.153e-5, -1.994e-5, 1.594e-6
0.180, -2.126e-5, -2.013e-5, 1.134e-6
0.176, -2.084e-5, -2.021e-5, 6.354e-7
0.172, -2.030e-5, -2.019e-5, 1.099e-7
0.168, -1.964e-5, -2.007e-5, -4.359e-7
0.164, -1.888e-5, -1.987e-5, -9.924e-7
0.160, -1.803e-5, -1.959e-5, -1.552e-6
0.156, -1.713e-5, -1.923e-5, -2.104e-6
0.152, -1.618e-5, -1.882e-5, -2.643e-6
0.148, -1.520e-5, -1.836e-5, -3.160e-6
0.144, -1.422e-5, -1.787e-5, -3.648e-6
0.140, -1.324e-5, -1.735e-5, -4.109e-6
0.136, -1.228e-5, -1.682e-5, -4.541e-6
0.132, -1.134e-5, -1.627e-5, -4.933e-6
0.128, -1.044e-5, -1.573e-5, -5.291e-6
0.124, -9.585e-6, -1.520e-5, -5.612e-6
0.120, -8.778e-6, -1.467e-5, -5.895e-6
0.116, -8.022e-6, -1.417e-5, -6.143e-6
0.112, -7.316e-6, -1.368e-5, -6.360e-6
0.108, -6.664e-6, -1.321e-5, -6.542e-6
0.104, -6.064e-6, -1.276e-5, -6.695e-6
0.100, -5.513e-6, -1.233e-5, -6.822e-6
0.096, -5.008e-6, -1.193e-5, -6.925e-6
0.092, -4.551e-6, -1.155e-5, -7.003e-6
0.088, -4.137e-6, -1.120e-5, -7.063e-6
0.084, -3.764e-6, -1.087e-5, -7.103e-6
0.080, -3.428e-6, -1.056e-5, -7.127e-6
0.076, -3.122e-6, -1.026e-5, -7.138e-6
0.072, -2.845e-6, -9.984e-6, -7.139e-6
0.068, -2.596e-6, -9.726e-6, -7.130e-6
0.064, -2.374e-6, -9.485e-6, -7.111e-6
0.060, -2.176e-6, -9.260e-6, -7.084e-6
0.056, -2.000e-6, -9.050e-6, -7.051e-6
0.052, -1.842e-6, -8.854e-6, -7.012e-6
0.048, -1.698e-6, -8.668e-6, -6.970e-6
0.044, -1.568e-6, -8.493e-6, -6.925e-6
0.040, -1.452e-6, -8.329e-6, -6.877e-6
0.036, -1.347e-6, -8.173e-6, -6.826e-6
0.032, -1.251e-6, -8.027e-6, -6.776e-6
0.028, -1.166e-6, -7.890e-6, -6.724e-6
0.024, -1.085e-6, -7.758e-6, -6.673e-6
0.020, -1.015e-6, -7.635e-6, -6.620e-6
0.016, -9.519e-7, -7.518e-6, -6.566e-6
0.012, -8.962e-7, -7.409e-6, -6.513e-6
0.008, -8.485e-7, -7.309e-6, -6.461e-6
0.004, -8.083e-7, -7.214e-6, -6.406e-6
-0.000, -7.720e-7, -7.122e-6, -6.350e-6
-0.004, -7.344e-7, -7.032e-6, -6.297e-6
-0.008, -6.938e-7, -6.942e-6, -6.248e-6
-0.012, -6.577e-7, -6.858e-6, -6.201e-6
-0.016, -6.282e-7, -6.781e-6, -6.152e-6
-0.020, -6.039e-7, -6.705e-6, -6.101e-6
-0.024, -5.831e-7, -6.633e-6, -6.050e-6
-0.028, -5.621e-7, -6.565e-6, -6.003e-6
-0.032, -5.414e-7, -6.498e-6, -5.956e-6
-0.036, -5.222e-7, -6.432e-6, -5.910e-6
-0.040, -5.036e-7, -6.367e-6, -5.863e-6
-0.044, -4.902e-7, -6.307e-6, -5.816e-6
-0.048, -4.724e-7, -6.250e-6, -5.778e-6
-0.052, -4.566e-7, -6.197e-6, -5.740e-6
-0.056, -4.420e-7, -6.143e-6, -5.701e-6
-0.060, -4.269e-7, -6.089e-6, -5.662e-6
-0.064, -4.169e-7, -6.036e-6, -5.619e-6
-0.068, -4.118e-7, -5.987e-6, -5.575e-6
-0.072, -4.019e-7, -5.939e-6, -5.537e-6
-0.076, -3.913e-7, -5.892e-6, -5.500e-6
-0.080, -3.801e-7, -5.844e-6, -5.464e-6
-0.084, -3.717e-7, -5.801e-6, -5.429e-6
-0.088, -3.707e-7, -5.764e-6, -5.393e-6
-0.092, -3.706e-7, -5.726e-6, -5.356e-6
-0.096, -3.685e-7, -5.689e-6, -5.320e-6
-0.100, -3.616e-7, -5.650e-6, -5.289e-6
-0.104, -3.470e-7, -5.609e-6, -5.262e-6
-0.108, -3.324e-7, -5.569e-6, -5.236e-6
-0.112, -3.241e-7, -5.533e-6, -5.209e-6
-0.116, -3.206e-7, -5.499e-6, -5.178e-6
-0.120, -3.214e-7, -5.466e-6, -5.145e-6
-0.124, -3.229e-7, -5.434e-6, -5.111e-6
-0.128, -3.217e-7, -5.402e-6, -5.080e-6
-0.132, -3.184e-7, -5.369e-6, -5.051e-6
-0.136, -3.135e-7, -5.337e-6, -5.024e-6
-0.140, -3.080e-7, -5.307e-6, -4.999e-6
-0.144, -3.055e-7, -5.280e-6, -4.975e-6
-0.148, -3.091e-7, -5.258e-6, -4.948e-6
-0.152, -3.167e-7, -5.238e-6, -4.921e-6
-0.156, -3.221e-7, -5.216e-6, -4.894e-6
-0.160, -3.219e-7, -5.191e-6, -4.869e-6
-0.164, -3.187e-7, -5.163e-6, -4.845e-6
-0.168, -3.162e-7, -5.136e-6, -4.820e-6
-0.172, -3.147e-7, -5.111e-6, -4.796e-6
-0.176, -3.113e-7, -5.087e-6, -4.776e-6
-0.180, -3.054e-7, -5.064e-6, -4.758e-6
-0.184, -3.018e-7, -5.041e-6, -4.740e-6
-0.188, -3.044e-7, -5.022e-6, -4.717e-6
-0.192, -3.105e-7, -5.004e-6, -4.694e-6
-0.196, -3.208e-7, -4.988e-6, -4.668e-6
-0.200, -3.355e-7, -4.975e-6, -4.639e-6
