Mar. 30, 2023   16:30:52
Cyclic Voltammetry
File: 05mmol160mvs
Data Source:  Experiment
Instrument Model:  CHI600B
Header: 
Note: 

Init E (V) = 0.268
High E (V) = 0.5
Low E (V) = -0.05
Init P/N = N
Scan Rate (V/s) = 0.16
Segment = 4
Sample Interval (V) = 0.001
Quiet Time (sec) = 2
Sensitivity (A/V) = 1e-5

Segment 1:

Segment 2:
Ep = 0.313V
ip = 4.008e-5A
Ah = 1.901e-5C

Segment 3:
Ep = 0.206V
ip = -3.679e-5A
Ah = -1.768e-5C

Segment 4:

Potential/V, Current/A, Charge/C

Segment 1:
0.267, -5.231e-7, -3.270e-9
0.266, -1.666e-6, -1.368e-8
0.265, -2.749e-6, -3.086e-8
0.264, -3.740e-6, -5.424e-8
0.263, -4.629e-6, -8.317e-8
0.262, -5.505e-6, -1.176e-7
0.261, -6.346e-6, -1.572e-7
0.260, -7.114e-6, -2.017e-7
0.259, -7.868e-6, -2.509e-7
0.258, -8.648e-6, -3.049e-7
0.257, -9.341e-6, -3.633e-7
0.256, -1.002e-5, -4.259e-7
0.255, -1.071e-5, -4.929e-7
0.254, -1.136e-5, -5.639e-7
0.253, -1.197e-5, -6.387e-7
0.252, -1.263e-5, -7.177e-7
0.251, -1.325e-5, -8.005e-7
0.250, -1.380e-5, -8.867e-7
0.249, -1.439e-5, -9.767e-7
0.248, -1.498e-5, -1.070e-6
0.247, -1.549e-5, -1.167e-6
0.246, -1.602e-5, -1.267e-6
0.245, -1.656e-5, -1.371e-6
0.244, -1.705e-5, -1.477e-6
0.243, -1.752e-5, -1.587e-6
0.242, -1.803e-5, -1.700e-6
0.241, -1.848e-5, -1.815e-6
0.240, -1.889e-5, -1.933e-6
0.239, -1.938e-5, -2.054e-6
0.238, -1.980e-5, -2.178e-6
0.237, -2.018e-5, -2.304e-6
0.236, -2.062e-5, -2.433e-6
0.235, -2.100e-5, -2.564e-6
0.234, -2.133e-5, -2.697e-6
0.233, -2.172e-5, -2.833e-6
0.232, -2.208e-5, -2.971e-6
0.231, -2.239e-5, -3.111e-6
0.230, -2.271e-5, -3.253e-6
0.229, -2.306e-5, -3.397e-6
0.228, -2.334e-5, -3.543e-6
0.227, -2.362e-5, -3.691e-6
0.226, -2.391e-5, -3.840e-6
0.225, -2.417e-5, -3.991e-6
0.224, -2.438e-5, -4.144e-6
0.223, -2.466e-5, -4.298e-6
0.222, -2.490e-5, -4.453e-6
0.221, -2.508e-5, -4.610e-6
0.220, -2.531e-5, -4.768e-6
0.219, -2.550e-5, -4.928e-6
0.218, -2.564e-5, -5.088e-6
0.217, -2.584e-5, -5.250e-6
0.216, -2.601e-5, -5.412e-6
0.215, -2.611e-5, -5.575e-6
0.214, -2.626e-5, -5.739e-6
0.213, -2.641e-5, -5.905e-6
0.212, -2.651e-5, -6.070e-6
0.211, -2.660e-5, -6.236e-6
0.210, -2.671e-5, -6.403e-6
0.209, -2.677e-5, -6.571e-6
0.208, -2.683e-5, -6.738e-6
0.207, -2.691e-5, -6.907e-6
0.206, -2.696e-5, -7.075e-6
0.205, -2.695e-5, -7.243e-6
0.204, -2.700e-5, -7.412e-6
0.203, -2.704e-5, -7.581e-6
0.202, -2.703e-5, -7.750e-6
0.201, -2.704e-5, -7.919e-6
0.200, -2.705e-5, -8.088e-6
0.199, -2.703e-5, -8.257e-6
0.198, -2.701e-5, -8.426e-6
0.197, -2.700e-5, -8.595e-6
0.196, -2.695e-5, -8.763e-6
0.195, -2.691e-5, -8.931e-6
0.194, -2.689e-5, -9.099e-6
0.193, -2.682e-5, -9.267e-6
0.192, -2.676e-5, -9.434e-6
0.191, -2.673e-5, -9.601e-6
0.190, -2.665e-5, -9.768e-6
0.189, -2.656e-5, -9.934e-6
0.188, -2.650e-5, -1.010e-5
0.187, -2.642e-5, -1.026e-5
0.186, -2.630e-5, -1.043e-5
0.185, -2.622e-5, -1.059e-5
0.184, -2.613e-5, -1.076e-5
0.183, -2.601e-5, -1.092e-5
0.182, -2.592e-5, -1.108e-5
0.181, -2.584e-5, -1.124e-5
0.180, -2.571e-5, -1.140e-5
0.179, -2.560e-5, -1.156e-5
0.178, -2.551e-5, -1.172e-5
0.177, -2.538e-5, -1.188e-5
0.176, -2.526e-5, -1.204e-5
0.175, -2.516e-5, -1.220e-5
0.174, -2.504e-5, -1.235e-5
0.173, -2.490e-5, -1.251e-5
0.172, -2.479e-5, -1.266e-5
0.171, -2.465e-5, -1.282e-5
0.170, -2.451e-5, -1.297e-5
0.169, -2.439e-5, -1.312e-5
0.168, -2.427e-5, -1.327e-5
0.167, -2.413e-5, -1.343e-5
0.166, -2.402e-5, -1.358e-5
0.165, -2.389e-5, -1.372e-5
0.164, -2.375e-5, -1.387e-5
0.163, -2.362e-5, -1.402e-5
0.162, -2.351e-5, -1.417e-5
0.161, -2.337e-5, -1.431e-5
0.160, -2.324e-5, -1.446e-5
0.159, -2.312e-5, -1.460e-5
0.158, -2.299e-5, -1.475e-5
0.157, -2.285e-5, -1.489e-5
0.156, -2.274e-5, -1.503e-5
0.155, -2.261e-5, -1.517e-5
0.154, -2.247e-5, -1.531e-5
0.153, -2.237e-5, -1.545e-5
0.152, -2.224e-5, -1.559e-5
0.151, -2.211e-5, -1.573e-5
0.150, -2.199e-5, -1.587e-5
0.149, -2.188e-5, -1.600e-5
0.148, -2.174e-5, -1.614e-5
0.147, -2.162e-5, -1.628e-5
0.146, -2.151e-5, -1.641e-5
0.145, -2.139e-5, -1.654e-5
0.144, -2.127e-5, -1.668e-5
0.143, -2.116e-5, -1.681e-5
0.142, -2.104e-5, -1.694e-5
0.141, -2.092e-5, -1.707e-5
0.140, -2.082e-5, -1.720e-5
0.139, -2.071e-5, -1.733e-5
0.138, -2.059e-5, -1.746e-5
0.137, -2.049e-5, -1.759e-5
0.136, -2.038e-5, -1.772e-5
0.135, -2.026e-5, -1.784e-5
0.134, -2.016e-5, -1.797e-5
0.133, -2.005e-5, -1.809e-5
0.132, -1.993e-5, -1.822e-5
0.131, -1.983e-5, -1.834e-5
0.130, -1.974e-5, -1.847e-5
0.129, -1.963e-5, -1.859e-5
0.128, -1.953e-5, -1.871e-5
0.127, -1.944e-5, -1.883e-5
0.126, -1.934e-5, -1.895e-5
0.125, -1.924e-5, -1.907e-5
0.124, -1.916e-5, -1.919e-5
0.123, -1.905e-5, -1.931e-5
0.122, -1.896e-5, -1.943e-5
0.121, -1.887e-5, -1.955e-5
0.120, -1.878e-5, -1.967e-5
0.119, -1.868e-5, -1.978e-5
0.118, -1.860e-5, -1.990e-5
0.117, -1.851e-5, -2.001e-5
0.116, -1.842e-5, -2.013e-5
0.115, -1.833e-5, -2.024e-5
0.114, -1.826e-5, -2.036e-5
0.113, -1.817e-5, -2.047e-5
0.112, -1.808e-5, -2.058e-5
0.111, -1.801e-5, -2.070e-5
0.110, -1.792e-5, -2.081e-5
0.109, -1.784e-5, -2.092e-5
0.108, -1.777e-5, -2.103e-5
0.107, -1.768e-5, -2.114e-5
0.106, -1.760e-5, -2.125e-5
0.105, -1.754e-5, -2.136e-5
0.104, -1.745e-5, -2.147e-5
0.103, -1.738e-5, -2.158e-5
0.102, -1.731e-5, -2.169e-5
0.101, -1.724e-5, -2.180e-5
0.100, -1.715e-5, -2.190e-5
0.099, -1.709e-5, -2.201e-5
0.098, -1.702e-5, -2.212e-5
0.097, -1.693e-5, -2.222e-5
0.096, -1.686e-5, -2.233e-5
0.095, -1.680e-5, -2.243e-5
0.094, -1.673e-5, -2.254e-5
0.093, -1.666e-5, -2.264e-5
0.092, -1.660e-5, -2.274e-5
0.091, -1.653e-5, -2.285e-5
0.090, -1.646e-5, -2.295e-5
0.089, -1.641e-5, -2.305e-5
0.088, -1.634e-5, -2.316e-5
0.087, -1.627e-5, -2.326e-5
0.086, -1.622e-5, -2.336e-5
0.085, -1.616e-5, -2.346e-5
0.084, -1.609e-5, -2.356e-5
0.083, -1.604e-5, -2.366e-5
0.082, -1.598e-5, -2.376e-5
0.081, -1.591e-5, -2.386e-5
0.080, -1.586e-5, -2.396e-5
0.079, -1.581e-5, -2.406e-5
0.078, -1.574e-5, -2.416e-5
0.077, -1.569e-5, -2.425e-5
0.076, -1.564e-5, -2.435e-5
0.075, -1.558e-5, -2.445e-5
0.074, -1.552e-5, -2.455e-5
0.073, -1.547e-5, -2.464e-5
0.072, -1.542e-5, -2.474e-5
0.071, -1.535e-5, -2.483e-5
0.070, -1.531e-5, -2.493e-5
0.069, -1.526e-5, -2.503e-5
0.068, -1.520e-5, -2.512e-5
0.067, -1.515e-5, -2.522e-5
0.066, -1.511e-5, -2.531e-5
0.065, -1.505e-5, -2.540e-5
0.064, -1.501e-5, -2.550e-5
0.063, -1.496e-5, -2.559e-5
0.062, -1.491e-5, -2.568e-5
0.061, -1.486e-5, -2.578e-5
0.060, -1.483e-5, -2.587e-5
0.059, -1.477e-5, -2.596e-5
0.058, -1.472e-5, -2.605e-5
0.057, -1.468e-5, -2.615e-5
0.056, -1.463e-5, -2.624e-5
0.055, -1.458e-5, -2.633e-5
0.054, -1.454e-5, -2.642e-5
0.053, -1.450e-5, -2.651e-5
0.052, -1.445e-5, -2.660e-5
0.051, -1.441e-5, -2.669e-5
0.050, -1.437e-5, -2.678e-5
0.049, -1.432e-5, -2.687e-5
0.048, -1.428e-5, -2.696e-5
0.047, -1.425e-5, -2.705e-5
0.046, -1.420e-5, -2.714e-5
0.045, -1.416e-5, -2.723e-5
0.044, -1.412e-5, -2.731e-5
0.043, -1.408e-5, -2.740e-5
0.042, -1.404e-5, -2.749e-5
0.041, -1.400e-5, -2.758e-5
0.040, -1.396e-5, -2.766e-5
0.039, -1.392e-5, -2.775e-5
0.038, -1.389e-5, -2.784e-5
0.037, -1.385e-5, -2.792e-5
0.036, -1.379e-5, -2.801e-5
0.035, -1.376e-5, -2.810e-5
0.034, -1.372e-5, -2.818e-5
0.033, -1.367e-5, -2.827e-5
0.032, -1.365e-5, -2.835e-5
0.031, -1.362e-5, -2.844e-5
0.030, -1.357e-5, -2.852e-5
0.029, -1.354e-5, -2.861e-5
0.028, -1.351e-5, -2.869e-5
0.027, -1.347e-5, -2.878e-5
0.026, -1.343e-5, -2.886e-5
0.025, -1.341e-5, -2.894e-5
0.024, -1.337e-5, -2.903e-5
0.023, -1.333e-5, -2.911e-5
0.022, -1.331e-5, -2.919e-5
0.021, -1.327e-5, -2.928e-5
0.020, -1.323e-5, -2.936e-5
0.019, -1.320e-5, -2.944e-5
0.018, -1.317e-5, -2.952e-5
0.017, -1.313e-5, -2.961e-5
0.016, -1.311e-5, -2.969e-5
0.015, -1.308e-5, -2.977e-5
0.014, -1.304e-5, -2.985e-5
0.013, -1.301e-5, -2.993e-5
0.012, -1.298e-5, -3.001e-5
0.011, -1.295e-5, -3.010e-5
0.010, -1.292e-5, -3.018e-5
0.009, -1.289e-5, -3.026e-5
0.008, -1.287e-5, -3.034e-5
0.007, -1.283e-5, -3.042e-5
0.006, -1.280e-5, -3.050e-5
0.005, -1.278e-5, -3.058e-5
0.004, -1.274e-5, -3.066e-5
0.003, -1.272e-5, -3.074e-5
0.002, -1.269e-5, -3.082e-5
0.001, -1.265e-5, -3.089e-5
-0.000, -1.263e-5, -3.097e-5
-0.001, -1.260e-5, -3.105e-5
-0.002, -1.257e-5, -3.113e-5
-0.003, -1.254e-5, -3.121e-5
-0.004, -1.253e-5, -3.129e-5
-0.005, -1.249e-5, -3.137e-5
-0.006, -1.246e-5, -3.144e-5
-0.007, -1.244e-5, -3.152e-5
-0.008, -1.240e-5, -3.160e-5
-0.009, -1.238e-5, -3.168e-5
-0.010, -1.235e-5, -3.175e-5
-0.011, -1.233e-5, -3.183e-5
-0.012, -1.230e-5, -3.191e-5
-0.013, -1.228e-5, -3.198e-5
-0.014, -1.225e-5, -3.206e-5
-0.015, -1.221e-5, -3.214e-5
-0.016, -1.220e-5, -3.221e-5
-0.017, -1.218e-5, -3.229e-5
-0.018, -1.215e-5, -3.236e-5
-0.019, -1.212e-5, -3.244e-5
-0.020, -1.210e-5, -3.252e-5
-0.021, -1.207e-5, -3.259e-5
-0.022, -1.205e-5, -3.267e-5
-0.023, -1.203e-5, -3.274e-5
-0.024, -1.200e-5, -3.282e-5
-0.025, -1.197e-5, -3.289e-5
-0.026, -1.196e-5, -3.297e-5
-0.027, -1.193e-5, -3.304e-5
-0.028, -1.191e-5, -3.312e-5
-0.029, -1.189e-5, -3.319e-5
-0.030, -1.187e-5, -3.326e-5
-0.031, -1.184e-5, -3.334e-5
-0.032, -1.182e-5, -3.341e-5
-0.033, -1.180e-5, -3.349e-5
-0.034, -1.177e-5, -3.356e-5
-0.035, -1.175e-5, -3.363e-5
-0.036, -1.174e-5, -3.371e-5
-0.037, -1.171e-5, -3.378e-5
-0.038, -1.168e-5, -3.385e-5
-0.039, -1.167e-5, -3.393e-5
-0.040, -1.164e-5, -3.400e-5
-0.041, -1.162e-5, -3.407e-5
-0.042, -1.161e-5, -3.414e-5
-0.043, -1.158e-5, -3.422e-5
-0.044, -1.156e-5, -3.429e-5
-0.045, -1.154e-5, -3.436e-5
-0.046, -1.152e-5, -3.443e-5
-0.047, -1.150e-5, -3.450e-5
-0.048, -1.147e-5, -3.458e-5
-0.049, -1.146e-5, -3.465e-5
-0.050, -1.132e-5, -3.472e-5

Segment 2:
-0.049, -1.114e-5, -3.479e-5
-0.048, -1.109e-5, -3.486e-5
-0.047, -1.103e-5, -3.493e-5
-0.046, -1.099e-5, -3.499e-5
-0.045, -1.097e-5, -3.506e-5
-0.044, -1.093e-5, -3.513e-5
-0.043, -1.088e-5, -3.520e-5
-0.042, -1.086e-5, -3.527e-5
-0.041, -1.083e-5, -3.533e-5
-0.040, -1.079e-5, -3.540e-5
-0.039, -1.077e-5, -3.547e-5
-0.038, -1.074e-5, -3.554e-5
-0.037, -1.070e-5, -3.560e-5
-0.036, -1.067e-5, -3.567e-5
-0.035, -1.065e-5, -3.574e-5
-0.034, -1.061e-5, -3.580e-5
-0.033, -1.059e-5, -3.587e-5
-0.032, -1.057e-5, -3.594e-5
-0.031, -1.054e-5, -3.600e-5
-0.030, -1.051e-5, -3.607e-5
-0.029, -1.049e-5, -3.613e-5
-0.028, -1.046e-5, -3.620e-5
-0.027, -1.044e-5, -3.626e-5
-0.026, -1.042e-5, -3.633e-5
-0.025, -1.039e-5, -3.639e-5
-0.024, -1.036e-5, -3.646e-5
-0.023, -1.034e-5, -3.652e-5
-0.022, -1.032e-5, -3.659e-5
-0.021, -1.029e-5, -3.665e-5
-0.020, -1.027e-5, -3.672e-5
-0.019, -1.025e-5, -3.678e-5
-0.018, -1.023e-5, -3.684e-5
-0.017, -1.020e-5, -3.691e-5
-0.016, -1.019e-5, -3.697e-5
-0.015, -1.016e-5, -3.703e-5
-0.014, -1.014e-5, -3.710e-5
-0.013, -1.013e-5, -3.716e-5
-0.012, -1.010e-5, -3.722e-5
-0.011, -1.007e-5, -3.729e-5
-0.010, -1.006e-5, -3.735e-5
-0.009, -1.004e-5, -3.741e-5
-0.008, -1.000e-5, -3.748e-5
-0.007, -9.995e-6, -3.754e-5
-0.006, -9.970e-6, -3.760e-5
-0.005, -9.948e-6, -3.766e-5
-0.004, -9.932e-6, -3.772e-5
-0.003, -9.909e-6, -3.779e-5
-0.002, -9.886e-6, -3.785e-5
-0.001, -9.865e-6, -3.791e-5
0.000, -9.849e-6, -3.797e-5
0.001, -9.825e-6, -3.803e-5
0.002, -9.806e-6, -3.809e-5
0.003, -9.798e-6, -3.816e-5
0.004, -9.767e-6, -3.822e-5
0.005, -9.750e-6, -3.828e-5
0.006, -9.734e-6, -3.834e-5
0.007, -9.710e-6, -3.840e-5
0.008, -9.687e-6, -3.846e-5
0.009, -9.668e-6, -3.852e-5
0.010, -9.656e-6, -3.858e-5
0.011, -9.627e-6, -3.864e-5
0.012, -9.612e-6, -3.870e-5
0.013, -9.604e-6, -3.876e-5
0.014, -9.576e-6, -3.882e-5
0.015, -9.560e-6, -3.888e-5
0.016, -9.550e-6, -3.894e-5
0.017, -9.520e-6, -3.900e-5
0.018, -9.505e-6, -3.906e-5
0.019, -9.494e-6, -3.912e-5
0.020, -9.467e-6, -3.918e-5
0.021, -9.450e-6, -3.924e-5
0.022, -9.434e-6, -3.930e-5
0.023, -9.416e-6, -3.935e-5
0.024, -9.389e-6, -3.941e-5
0.025, -9.378e-6, -3.947e-5
0.026, -9.366e-6, -3.953e-5
0.027, -9.338e-6, -3.959e-5
0.028, -9.321e-6, -3.965e-5
0.029, -9.311e-6, -3.970e-5
0.030, -9.282e-6, -3.976e-5
0.031, -9.268e-6, -3.982e-5
0.032, -9.258e-6, -3.988e-5
0.033, -9.233e-6, -3.994e-5
0.034, -9.217e-6, -3.999e-5
0.035, -9.208e-6, -4.005e-5
0.036, -9.181e-6, -4.011e-5
0.037, -9.166e-6, -4.017e-5
0.038, -9.153e-6, -4.022e-5
0.039, -9.127e-6, -4.028e-5
0.040, -9.106e-6, -4.034e-5
0.041, -9.091e-6, -4.039e-5
0.042, -9.075e-6, -4.045e-5
0.043, -9.056e-6, -4.051e-5
0.044, -9.039e-6, -4.056e-5
0.045, -9.027e-6, -4.062e-5
0.046, -9.000e-6, -4.068e-5
0.047, -8.983e-6, -4.073e-5
0.048, -8.977e-6, -4.079e-5
0.049, -8.952e-6, -4.084e-5
0.050, -8.930e-6, -4.090e-5
0.051, -8.924e-6, -4.096e-5
0.052, -8.904e-6, -4.101e-5
0.053, -8.881e-6, -4.107e-5
0.054, -8.875e-6, -4.112e-5
0.055, -8.853e-6, -4.118e-5
0.056, -8.829e-6, -4.123e-5
0.057, -8.821e-6, -4.129e-5
0.058, -8.802e-6, -4.134e-5
0.059, -8.780e-6, -4.140e-5
0.060, -8.772e-6, -4.145e-5
0.061, -8.752e-6, -4.151e-5
0.062, -8.731e-6, -4.156e-5
0.063, -8.717e-6, -4.162e-5
0.064, -8.700e-6, -4.167e-5
0.065, -8.680e-6, -4.173e-5
0.066, -8.663e-6, -4.178e-5
0.067, -8.650e-6, -4.183e-5
0.068, -8.632e-6, -4.189e-5
0.069, -8.607e-6, -4.194e-5
0.070, -8.594e-6, -4.200e-5
0.071, -8.582e-6, -4.205e-5
0.072, -8.551e-6, -4.210e-5
0.073, -8.539e-6, -4.216e-5
0.074, -8.524e-6, -4.221e-5
0.075, -8.496e-6, -4.226e-5
0.076, -8.486e-6, -4.232e-5
0.077, -8.476e-6, -4.237e-5
0.078, -8.445e-6, -4.242e-5
0.079, -8.434e-6, -4.247e-5
0.080, -8.423e-6, -4.253e-5
0.081, -8.393e-6, -4.258e-5
0.082, -8.379e-6, -4.263e-5
0.083, -8.367e-6, -4.268e-5
0.084, -8.340e-6, -4.274e-5
0.085, -8.316e-6, -4.279e-5
0.086, -8.300e-6, -4.284e-5
0.087, -8.289e-6, -4.289e-5
0.088, -8.259e-6, -4.294e-5
0.089, -8.245e-6, -4.299e-5
0.090, -8.229e-6, -4.305e-5
0.091, -8.199e-6, -4.310e-5
0.092, -8.190e-6, -4.315e-5
0.093, -8.173e-6, -4.320e-5
0.094, -8.143e-6, -4.325e-5
0.095, -8.123e-6, -4.330e-5
0.096, -8.105e-6, -4.335e-5
0.097, -8.085e-6, -4.340e-5
0.098, -8.056e-6, -4.345e-5
0.099, -8.046e-6, -4.350e-5
0.100, -8.019e-6, -4.355e-5
0.101, -7.996e-6, -4.360e-5
0.102, -7.982e-6, -4.365e-5
0.103, -7.953e-6, -4.370e-5
0.104, -7.924e-6, -4.375e-5
0.105, -7.904e-6, -4.380e-5
0.106, -7.888e-6, -4.385e-5
0.107, -7.855e-6, -4.390e-5
0.108, -7.836e-6, -4.395e-5
0.109, -7.813e-6, -4.400e-5
0.110, -7.785e-6, -4.405e-5
0.111, -7.757e-6, -4.409e-5
0.112, -7.743e-6, -4.414e-5
0.113, -7.707e-6, -4.419e-5
0.114, -7.682e-6, -4.424e-5
0.115, -7.661e-6, -4.429e-5
0.116, -7.630e-6, -4.433e-5
0.117, -7.602e-6, -4.438e-5
0.118, -7.568e-6, -4.443e-5
0.119, -7.534e-6, -4.448e-5
0.120, -7.502e-6, -4.452e-5
0.121, -7.469e-6, -4.457e-5
0.122, -7.443e-6, -4.462e-5
0.123, -7.411e-6, -4.466e-5
0.124, -7.374e-6, -4.471e-5
0.125, -7.352e-6, -4.476e-5
0.126, -7.311e-6, -4.480e-5
0.127, -7.277e-6, -4.485e-5
0.128, -7.252e-6, -4.489e-5
0.129, -7.212e-6, -4.494e-5
0.130, -7.173e-6, -4.498e-5
0.131, -7.144e-6, -4.503e-5
0.132, -7.106e-6, -4.507e-5
0.133, -7.061e-6, -4.511e-5
0.134, -7.024e-6, -4.516e-5
0.135, -6.989e-6, -4.520e-5
0.136, -6.931e-6, -4.525e-5
0.137, -6.897e-6, -4.529e-5
0.138, -6.858e-6, -4.533e-5
0.139, -6.806e-6, -4.537e-5
0.140, -6.763e-6, -4.542e-5
0.141, -6.724e-6, -4.546e-5
0.142, -6.671e-6, -4.550e-5
0.143, -6.620e-6, -4.554e-5
0.144, -6.579e-6, -4.558e-5
0.145, -6.520e-6, -4.562e-5
0.146, -6.467e-6, -4.566e-5
0.147, -6.425e-6, -4.570e-5
0.148, -6.362e-6, -4.574e-5
0.149, -6.298e-6, -4.578e-5
0.150, -6.244e-6, -4.582e-5
0.151, -6.186e-6, -4.586e-5
0.152, -6.113e-6, -4.590e-5
0.153, -6.055e-6, -4.594e-5
0.154, -5.998e-6, -4.597e-5
0.155, -5.926e-6, -4.601e-5
0.156, -5.855e-6, -4.605e-5
0.157, -5.795e-6, -4.608e-5
0.158, -5.715e-6, -4.612e-5
0.159, -5.639e-6, -4.616e-5
0.160, -5.570e-6, -4.619e-5
0.161, -5.488e-6, -4.622e-5
0.162, -5.397e-6, -4.626e-5
0.163, -5.322e-6, -4.629e-5
0.164, -5.242e-6, -4.632e-5
0.165, -5.142e-6, -4.636e-5
0.166, -5.054e-6, -4.639e-5
0.167, -4.964e-6, -4.642e-5
0.168, -4.859e-6, -4.645e-5
0.169, -4.765e-6, -4.648e-5
0.170, -4.673e-6, -4.651e-5
0.171, -4.554e-6, -4.654e-5
0.172, -4.438e-6, -4.656e-5
0.173, -4.339e-6, -4.659e-5
0.174, -4.217e-6, -4.662e-5
0.175, -4.095e-6, -4.664e-5
0.176, -3.991e-6, -4.667e-5
0.177, -3.867e-6, -4.669e-5
0.178, -3.723e-6, -4.672e-5
0.179, -3.602e-6, -4.674e-5
0.180, -3.471e-6, -4.676e-5
0.181, -3.322e-6, -4.678e-5
0.182, -3.186e-6, -4.680e-5
0.183, -3.053e-6, -4.682e-5
0.184, -2.886e-6, -4.684e-5
0.185, -2.730e-6, -4.685e-5
0.186, -2.587e-6, -4.687e-5
0.187, -2.411e-6, -4.689e-5
0.188, -2.245e-6, -4.690e-5
0.189, -2.090e-6, -4.691e-5
0.190, -1.911e-6, -4.693e-5
0.191, -1.716e-6, -4.694e-5
0.192, -1.553e-6, -4.695e-5
0.193, -1.358e-6, -4.695e-5
0.194, -1.136e-6, -4.696e-5
0.195, -9.570e-7, -4.697e-5
0.196, -7.640e-7, -4.697e-5
0.197, -5.353e-7, -4.698e-5
0.198, -3.241e-7, -4.698e-5
0.199, -1.237e-7, -4.698e-5
0.200, 1.314e-7, -4.698e-5
0.201, 3.713e-7, -4.698e-5
0.202, 5.775e-7, -4.697e-5
0.203, 8.372e-7, -4.697e-5
0.204, 1.086e-6, -4.696e-5
0.205, 1.292e-6, -4.695e-5
0.206, 1.558e-6, -4.694e-5
0.207, 1.841e-6, -4.693e-5
0.208, 2.086e-6, -4.692e-5
0.209, 2.367e-6, -4.690e-5
0.210, 2.669e-6, -4.689e-5
0.211, 2.927e-6, -4.687e-5
0.212, 3.212e-6, -4.685e-5
0.213, 3.540e-6, -4.683e-5
0.214, 3.825e-6, -4.680e-5
0.215, 4.119e-6, -4.678e-5
0.216, 4.450e-6, -4.675e-5
0.217, 4.768e-6, -4.672e-5
0.218, 5.073e-6, -4.669e-5
0.219, 5.420e-6, -4.665e-5
0.220, 5.769e-6, -4.662e-5
0.221, 6.071e-6, -4.658e-5
0.222, 6.421e-6, -4.654e-5
0.223, 6.802e-6, -4.650e-5
0.224, 7.119e-6, -4.645e-5
0.225, 7.478e-6, -4.640e-5
0.226, 7.870e-6, -4.636e-5
0.227, 8.236e-6, -4.630e-5
0.228, 8.597e-6, -4.625e-5
0.229, 9.008e-6, -4.619e-5
0.230, 9.385e-6, -4.614e-5
0.231, 9.752e-6, -4.607e-5
0.232, 1.017e-5, -4.601e-5
0.233, 1.058e-5, -4.594e-5
0.234, 1.094e-5, -4.588e-5
0.235, 1.138e-5, -4.580e-5
0.236, 1.181e-5, -4.573e-5
0.237, 1.218e-5, -4.566e-5
0.238, 1.260e-5, -4.558e-5
0.239, 1.305e-5, -4.549e-5
0.240, 1.346e-5, -4.541e-5
0.241, 1.387e-5, -4.532e-5
0.242, 1.434e-5, -4.523e-5
0.243, 1.476e-5, -4.514e-5
0.244, 1.517e-5, -4.505e-5
0.245, 1.565e-5, -4.495e-5
0.246, 1.609e-5, -4.485e-5
0.247, 1.650e-5, -4.475e-5
0.248, 1.696e-5, -4.464e-5
0.249, 1.741e-5, -4.453e-5
0.250, 1.784e-5, -4.442e-5
0.251, 1.829e-5, -4.431e-5
0.252, 1.875e-5, -4.419e-5
0.253, 1.916e-5, -4.407e-5
0.254, 1.962e-5, -4.395e-5
0.255, 2.009e-5, -4.382e-5
0.256, 2.049e-5, -4.369e-5
0.257, 2.093e-5, -4.356e-5
0.258, 2.143e-5, -4.343e-5
0.259, 2.185e-5, -4.329e-5
0.260, 2.226e-5, -4.315e-5
0.261, 2.271e-5, -4.301e-5
0.262, 2.315e-5, -4.286e-5
0.263, 2.355e-5, -4.272e-5
0.264, 2.402e-5, -4.257e-5
0.265, 2.445e-5, -4.241e-5
0.266, 2.482e-5, -4.226e-5
0.267, 2.528e-5, -4.210e-5
0.268, 2.572e-5, -4.194e-5
0.269, 2.607e-5, -4.178e-5
0.270, 2.648e-5, -4.161e-5
0.271, 2.691e-5, -4.144e-5
0.272, 2.728e-5, -4.127e-5
0.273, 2.767e-5, -4.110e-5
0.274, 2.806e-5, -4.093e-5
0.275, 2.842e-5, -4.075e-5
0.276, 2.876e-5, -4.057e-5
0.277, 2.916e-5, -4.039e-5
0.278, 2.950e-5, -4.020e-5
0.279, 2.981e-5, -4.002e-5
0.280, 3.019e-5, -3.983e-5
0.281, 3.052e-5, -3.964e-5
0.282, 3.079e-5, -3.944e-5
0.283, 3.113e-5, -3.925e-5
0.284, 3.144e-5, -3.905e-5
0.285, 3.168e-5, -3.885e-5
0.286, 3.196e-5, -3.865e-5
0.287, 3.226e-5, -3.845e-5
0.288, 3.250e-5, -3.825e-5
0.289, 3.274e-5, -3.804e-5
0.290, 3.302e-5, -3.784e-5
0.291, 3.325e-5, -3.763e-5
0.292, 3.345e-5, -3.742e-5
0.293, 3.369e-5, -3.721e-5
0.294, 3.390e-5, -3.700e-5
0.295, 3.405e-5, -3.679e-5
0.296, 3.426e-5, -3.657e-5
0.297, 3.443e-5, -3.636e-5
0.298, 3.455e-5, -3.614e-5
0.299, 3.473e-5, -3.592e-5
0.300, 3.488e-5, -3.571e-5
0.301, 3.497e-5, -3.549e-5
0.302, 3.509e-5, -3.527e-5
0.303, 3.522e-5, -3.505e-5
0.304, 3.529e-5, -3.483e-5
0.305, 3.536e-5, -3.461e-5
0.306, 3.546e-5, -3.439e-5
0.307, 3.551e-5, -3.416e-5
0.308, 3.554e-5, -3.394e-5
0.309, 3.563e-5, -3.372e-5
0.310, 3.564e-5, -3.350e-5
0.311, 3.563e-5, -3.327e-5
0.312, 3.569e-5, -3.305e-5
0.313, 3.570e-5, -3.283e-5
0.314, 3.565e-5, -3.260e-5
0.315, 3.565e-5, -3.238e-5
0.316, 3.565e-5, -3.216e-5
0.317, 3.559e-5, -3.194e-5
0.318, 3.555e-5, -3.171e-5
0.319, 3.552e-5, -3.149e-5
0.320, 3.543e-5, -3.127e-5
0.321, 3.537e-5, -3.105e-5
0.322, 3.533e-5, -3.083e-5
0.323, 3.523e-5, -3.061e-5
0.324, 3.513e-5, -3.039e-5
0.325, 3.507e-5, -3.017e-5
0.326, 3.497e-5, -2.995e-5
0.327, 3.484e-5, -2.973e-5
0.328, 3.475e-5, -2.952e-5
0.329, 3.463e-5, -2.930e-5
0.330, 3.449e-5, -2.908e-5
0.331, 3.437e-5, -2.887e-5
0.332, 3.425e-5, -2.865e-5
0.333, 3.409e-5, -2.844e-5
0.334, 3.396e-5, -2.823e-5
0.335, 3.384e-5, -2.802e-5
0.336, 3.367e-5, -2.781e-5
0.337, 3.352e-5, -2.760e-5
0.338, 3.339e-5, -2.739e-5
0.339, 3.321e-5, -2.718e-5
0.340, 3.304e-5, -2.698e-5
0.341, 3.290e-5, -2.677e-5
0.342, 3.273e-5, -2.657e-5
0.343, 3.255e-5, -2.636e-5
0.344, 3.240e-5, -2.616e-5
0.345, 3.224e-5, -2.596e-5
0.346, 3.205e-5, -2.576e-5
0.347, 3.189e-5, -2.556e-5
0.348, 3.172e-5, -2.536e-5
0.349, 3.153e-5, -2.516e-5
0.350, 3.137e-5, -2.497e-5
0.351, 3.120e-5, -2.477e-5
0.352, 3.101e-5, -2.458e-5
0.353, 3.084e-5, -2.439e-5
0.354, 3.068e-5, -2.419e-5
0.355, 3.049e-5, -2.400e-5
0.356, 3.032e-5, -2.381e-5
0.357, 3.017e-5, -2.362e-5
0.358, 2.998e-5, -2.344e-5
0.359, 2.979e-5, -2.325e-5
0.360, 2.963e-5, -2.307e-5
0.361, 2.945e-5, -2.288e-5
0.362, 2.927e-5, -2.270e-5
0.363, 2.911e-5, -2.252e-5
0.364, 2.894e-5, -2.234e-5
0.365, 2.877e-5, -2.216e-5
0.366, 2.861e-5, -2.198e-5
0.367, 2.845e-5, -2.180e-5
0.368, 2.826e-5, -2.162e-5
0.369, 2.810e-5, -2.145e-5
0.370, 2.794e-5, -2.127e-5
0.371, 2.777e-5, -2.110e-5
0.372, 2.761e-5, -2.093e-5
0.373, 2.746e-5, -2.076e-5
0.374, 2.730e-5, -2.058e-5
0.375, 2.714e-5, -2.041e-5
0.376, 2.700e-5, -2.025e-5
0.377, 2.684e-5, -2.008e-5
0.378, 2.666e-5, -1.991e-5
0.379, 2.652e-5, -1.975e-5
0.380, 2.637e-5, -1.958e-5
0.381, 2.621e-5, -1.942e-5
0.382, 2.608e-5, -1.925e-5
0.383, 2.593e-5, -1.909e-5
0.384, 2.577e-5, -1.893e-5
0.385, 2.564e-5, -1.877e-5
0.386, 2.550e-5, -1.861e-5
0.387, 2.535e-5, -1.845e-5
0.388, 2.521e-5, -1.830e-5
0.389, 2.507e-5, -1.814e-5
0.390, 2.492e-5, -1.798e-5
0.391, 2.478e-5, -1.783e-5
0.392, 2.466e-5, -1.767e-5
0.393, 2.452e-5, -1.752e-5
0.394, 2.439e-5, -1.737e-5
0.395, 2.427e-5, -1.722e-5
0.396, 2.414e-5, -1.707e-5
0.397, 2.401e-5, -1.692e-5
0.398, 2.390e-5, -1.677e-5
0.399, 2.378e-5, -1.662e-5
0.400, 2.363e-5, -1.647e-5
0.401, 2.352e-5, -1.632e-5
0.402, 2.340e-5, -1.618e-5
0.403, 2.327e-5, -1.603e-5
0.404, 2.317e-5, -1.589e-5
0.405, 2.306e-5, -1.574e-5
0.406, 2.294e-5, -1.560e-5
0.407, 2.282e-5, -1.546e-5
0.408, 2.272e-5, -1.531e-5
0.409, 2.260e-5, -1.517e-5
0.410, 2.249e-5, -1.503e-5
0.411, 2.240e-5, -1.489e-5
0.412, 2.229e-5, -1.475e-5
0.413, 2.218e-5, -1.461e-5
0.414, 2.208e-5, -1.448e-5
0.415, 2.197e-5, -1.434e-5
0.416, 2.186e-5, -1.420e-5
0.417, 2.177e-5, -1.407e-5
0.418, 2.167e-5, -1.393e-5
0.419, 2.157e-5, -1.380e-5
0.420, 2.147e-5, -1.366e-5
0.421, 2.139e-5, -1.353e-5
0.422, 2.128e-5, -1.340e-5
0.423, 2.119e-5, -1.326e-5
0.424, 2.111e-5, -1.313e-5
0.425, 2.101e-5, -1.300e-5
0.426, 2.092e-5, -1.287e-5
0.427, 2.084e-5, -1.274e-5
0.428, 2.075e-5, -1.261e-5
0.429, 2.065e-5, -1.248e-5
0.430, 2.057e-5, -1.235e-5
0.431, 2.047e-5, -1.222e-5
0.432, 2.038e-5, -1.210e-5
0.433, 2.030e-5, -1.197e-5
0.434, 2.022e-5, -1.184e-5
0.435, 2.013e-5, -1.172e-5
0.436, 2.005e-5, -1.159e-5
0.437, 1.998e-5, -1.147e-5
0.438, 1.989e-5, -1.134e-5
0.439, 1.982e-5, -1.122e-5
0.440, 1.975e-5, -1.110e-5
0.441, 1.966e-5, -1.097e-5
0.442, 1.959e-5, -1.085e-5
0.443, 1.952e-5, -1.073e-5
0.444, 1.944e-5, -1.061e-5
0.445, 1.936e-5, -1.049e-5
0.446, 1.930e-5, -1.036e-5
0.447, 1.923e-5, -1.024e-5
0.448, 1.915e-5, -1.013e-5
0.449, 1.908e-5, -1.001e-5
0.450, 1.902e-5, -9.887e-6
0.451, 1.894e-5, -9.769e-6
0.452, 1.888e-5, -9.651e-6
0.453, 1.881e-5, -9.533e-6
0.454, 1.873e-5, -9.416e-6
0.455, 1.867e-5, -9.299e-6
0.456, 1.861e-5, -9.183e-6
0.457, 1.854e-5, -9.067e-6
0.458, 1.847e-5, -8.952e-6
0.459, 1.842e-5, -8.836e-6
0.460, 1.835e-5, -8.722e-6
0.461, 1.829e-5, -8.607e-6
0.462, 1.823e-5, -8.494e-6
0.463, 1.817e-5, -8.380e-6
0.464, 1.810e-5, -8.267e-6
0.465, 1.804e-5, -8.154e-6
0.466, 1.799e-5, -8.042e-6
0.467, 1.792e-5, -7.930e-6
0.468, 1.787e-5, -7.818e-6
0.469, 1.781e-5, -7.707e-6
0.470, 1.775e-5, -7.596e-6
0.471, 1.769e-5, -7.485e-6
0.472, 1.765e-5, -7.375e-6
0.473, 1.758e-5, -7.265e-6
0.474, 1.753e-5, -7.155e-6
0.475, 1.748e-5, -7.046e-6
0.476, 1.741e-5, -6.937e-6
0.477, 1.735e-5, -6.829e-6
0.478, 1.730e-5, -6.721e-6
0.479, 1.725e-5, -6.613e-6
0.480, 1.719e-5, -6.506e-6
0.481, 1.714e-5, -6.398e-6
0.482, 1.709e-5, -6.292e-6
0.483, 1.703e-5, -6.185e-6
0.484, 1.699e-5, -6.079e-6
0.485, 1.695e-5, -5.973e-6
0.486, 1.689e-5, -5.868e-6
0.487, 1.684e-5, -5.762e-6
0.488, 1.680e-5, -5.657e-6
0.489, 1.674e-5, -5.553e-6
0.490, 1.669e-5, -5.448e-6
0.491, 1.665e-5, -5.344e-6
0.492, 1.660e-5, -5.240e-6
0.493, 1.655e-5, -5.137e-6
0.494, 1.651e-5, -5.034e-6
0.495, 1.646e-5, -4.931e-6
0.496, 1.641e-5, -4.828e-6
0.497, 1.637e-5, -4.726e-6
0.498, 1.633e-5, -4.624e-6
0.499, 1.628e-5, -4.522e-6
0.500, 1.610e-5, -4.422e-6

Segment 3:
0.499, 1.583e-5, -4.323e-6
0.498, 1.570e-5, -4.225e-6
0.497, 1.561e-5, -4.127e-6
0.496, 1.553e-5, -4.030e-6
0.495, 1.545e-5, -3.933e-6
0.494, 1.537e-5, -3.837e-6
0.493, 1.531e-5, -3.742e-6
0.492, 1.524e-5, -3.646e-6
0.491, 1.517e-5, -3.552e-6
0.490, 1.511e-5, -3.457e-6
0.489, 1.505e-5, -3.363e-6
0.488, 1.499e-5, -3.269e-6
0.487, 1.494e-5, -3.176e-6
0.486, 1.488e-5, -3.083e-6
0.485, 1.481e-5, -2.990e-6
0.484, 1.476e-5, -2.898e-6
0.483, 1.471e-5, -2.806e-6
0.482, 1.465e-5, -2.715e-6
0.481, 1.460e-5, -2.623e-6
0.480, 1.456e-5, -2.532e-6
0.479, 1.450e-5, -2.442e-6
0.478, 1.445e-5, -2.352e-6
0.477, 1.440e-5, -2.262e-6
0.476, 1.435e-5, -2.172e-6
0.475, 1.429e-5, -2.083e-6
0.474, 1.424e-5, -1.994e-6
0.473, 1.419e-5, -1.905e-6
0.472, 1.414e-5, -1.816e-6
0.471, 1.410e-5, -1.728e-6
0.470, 1.405e-5, -1.641e-6
0.469, 1.399e-5, -1.553e-6
0.468, 1.395e-5, -1.466e-6
0.467, 1.391e-5, -1.379e-6
0.466, 1.386e-5, -1.292e-6
0.465, 1.382e-5, -1.206e-6
0.464, 1.378e-5, -1.120e-6
0.463, 1.373e-5, -1.034e-6
0.462, 1.369e-5, -9.484e-7
0.461, 1.365e-5, -8.631e-7
0.460, 1.360e-5, -7.781e-7
0.459, 1.356e-5, -6.934e-7
0.458, 1.352e-5, -6.089e-7
0.457, 1.348e-5, -5.246e-7
0.456, 1.343e-5, -4.407e-7
0.455, 1.339e-5, -3.570e-7
0.454, 1.335e-5, -2.736e-7
0.453, 1.330e-5, -1.905e-7
0.452, 1.326e-5, -1.076e-7
0.451, 1.323e-5, -2.489e-8
0.450, 1.318e-5, 5.749e-8
0.449, 1.314e-5, 1.396e-7
0.448, 1.311e-5, 2.215e-7
0.447, 1.306e-5, 3.032e-7
0.446, 1.302e-5, 3.845e-7
0.445, 1.299e-5, 4.657e-7
0.444, 1.294e-5, 5.466e-7
0.443, 1.290e-5, 6.272e-7
0.442, 1.286e-5, 7.076e-7
0.441, 1.283e-5, 7.878e-7
0.440, 1.278e-5, 8.676e-7
0.439, 1.275e-5, 9.473e-7
0.438, 1.271e-5, 1.027e-6
0.437, 1.266e-5, 1.106e-6
0.436, 1.262e-5, 1.185e-6
0.435, 1.259e-5, 1.263e-6
0.434, 1.254e-5, 1.342e-6
0.433, 1.250e-5, 1.420e-6
0.432, 1.246e-5, 1.498e-6
0.431, 1.242e-5, 1.575e-6
0.430, 1.238e-5, 1.653e-6
0.429, 1.235e-5, 1.730e-6
0.428, 1.231e-5, 1.807e-6
0.427, 1.226e-5, 1.884e-6
0.426, 1.223e-5, 1.960e-6
0.425, 1.219e-5, 2.036e-6
0.424, 1.214e-5, 2.112e-6
0.423, 1.211e-5, 2.188e-6
0.422, 1.207e-5, 2.263e-6
0.421, 1.203e-5, 2.338e-6
0.420, 1.199e-5, 2.413e-6
0.419, 1.196e-5, 2.488e-6
0.418, 1.191e-5, 2.562e-6
0.417, 1.187e-5, 2.637e-6
0.416, 1.184e-5, 2.711e-6
0.415, 1.179e-5, 2.784e-6
0.414, 1.175e-5, 2.858e-6
0.413, 1.172e-5, 2.931e-6
0.412, 1.167e-5, 3.004e-6
0.411, 1.163e-5, 3.077e-6
0.410, 1.159e-5, 3.149e-6
0.409, 1.155e-5, 3.221e-6
0.408, 1.150e-5, 3.293e-6
0.407, 1.146e-5, 3.365e-6
0.406, 1.142e-5, 3.436e-6
0.405, 1.137e-5, 3.507e-6
0.404, 1.133e-5, 3.578e-6
0.403, 1.129e-5, 3.649e-6
0.402, 1.124e-5, 3.719e-6
0.401, 1.119e-5, 3.789e-6
0.400, 1.115e-5, 3.858e-6
0.399, 1.109e-5, 3.928e-6
0.398, 1.105e-5, 3.997e-6
0.397, 1.101e-5, 4.066e-6
0.396, 1.095e-5, 4.134e-6
0.395, 1.090e-5, 4.202e-6
0.394, 1.086e-5, 4.270e-6
0.393, 1.081e-5, 4.338e-6
0.392, 1.075e-5, 4.405e-6
0.391, 1.071e-5, 4.472e-6
0.390, 1.066e-5, 4.538e-6
0.389, 1.060e-5, 4.605e-6
0.388, 1.055e-5, 4.671e-6
0.387, 1.051e-5, 4.736e-6
0.386, 1.044e-5, 4.802e-6
0.385, 1.039e-5, 4.867e-6
0.384, 1.034e-5, 4.931e-6
0.383, 1.028e-5, 4.995e-6
0.382, 1.022e-5, 5.059e-6
0.381, 1.017e-5, 5.123e-6
0.380, 1.011e-5, 5.186e-6
0.379, 1.004e-5, 5.249e-6
0.378, 9.983e-6, 5.311e-6
0.377, 9.923e-6, 5.373e-6
0.376, 9.849e-6, 5.435e-6
0.375, 9.789e-6, 5.496e-6
0.374, 9.722e-6, 5.557e-6
0.373, 9.648e-6, 5.617e-6
0.372, 9.580e-6, 5.677e-6
0.371, 9.515e-6, 5.736e-6
0.370, 9.436e-6, 5.795e-6
0.369, 9.355e-6, 5.854e-6
0.368, 9.292e-6, 5.912e-6
0.367, 9.211e-6, 5.969e-6
0.366, 9.123e-6, 6.026e-6
0.365, 9.054e-6, 6.083e-6
0.364, 8.972e-6, 6.139e-6
0.363, 8.876e-6, 6.195e-6
0.362, 8.800e-6, 6.250e-6
0.361, 8.712e-6, 6.304e-6
0.360, 8.607e-6, 6.358e-6
0.359, 8.520e-6, 6.411e-6
0.358, 8.431e-6, 6.464e-6
0.357, 8.325e-6, 6.516e-6
0.356, 8.226e-6, 6.567e-6
0.355, 8.140e-6, 6.618e-6
0.354, 8.010e-6, 6.668e-6
0.353, 7.901e-6, 6.718e-6
0.352, 7.800e-6, 6.766e-6
0.351, 7.680e-6, 6.814e-6
0.350, 7.560e-6, 6.862e-6
0.349, 7.461e-6, 6.908e-6
0.348, 7.335e-6, 6.954e-6
0.347, 7.199e-6, 6.999e-6
0.346, 7.081e-6, 7.043e-6
0.345, 6.957e-6, 7.087e-6
0.344, 6.805e-6, 7.129e-6
0.343, 6.675e-6, 7.171e-6
0.342, 6.545e-6, 7.212e-6
0.341, 6.391e-6, 7.252e-6
0.340, 6.241e-6, 7.291e-6
0.339, 6.104e-6, 7.329e-6
0.338, 5.948e-6, 7.366e-6
0.337, 5.779e-6, 7.402e-6
0.336, 5.630e-6, 7.437e-6
0.335, 5.461e-6, 7.472e-6
0.334, 5.274e-6, 7.505e-6
0.333, 5.116e-6, 7.537e-6
0.332, 4.931e-6, 7.567e-6
0.331, 4.728e-6, 7.597e-6
0.330, 4.546e-6, 7.625e-6
0.329, 4.365e-6, 7.653e-6
0.328, 4.148e-6, 7.679e-6
0.327, 3.951e-6, 7.703e-6
0.326, 3.763e-6, 7.727e-6
0.325, 3.534e-6, 7.749e-6
0.324, 3.310e-6, 7.770e-6
0.323, 3.106e-6, 7.789e-6
0.322, 2.868e-6, 7.807e-6
0.321, 2.629e-6, 7.823e-6
0.320, 2.413e-6, 7.838e-6
0.319, 2.169e-6, 7.852e-6
0.318, 1.911e-6, 7.864e-6
0.317, 1.663e-6, 7.874e-6
0.316, 1.413e-6, 7.883e-6
0.315, 1.127e-6, 7.890e-6
0.314, 8.698e-7, 7.896e-6
0.313, 6.161e-7, 7.899e-6
0.312, 3.119e-7, 7.901e-6
0.311, 9.574e-10, 7.901e-6
0.310, -2.609e-7, 7.900e-6
0.309, -5.800e-7, 7.896e-6
0.308, -8.852e-7, 7.891e-6
0.307, -1.169e-6, 7.883e-6
0.306, -1.510e-6, 7.874e-6
0.305, -1.839e-6, 7.862e-6
0.304, -2.140e-6, 7.849e-6
0.303, -2.473e-6, 7.834e-6
0.302, -2.824e-6, 7.816e-6
0.301, -3.149e-6, 7.796e-6
0.300, -3.476e-6, 7.774e-6
0.299, -3.865e-6, 7.750e-6
0.298, -4.201e-6, 7.724e-6
0.297, -4.548e-6, 7.696e-6
0.296, -4.943e-6, 7.665e-6
0.295, -5.311e-6, 7.632e-6
0.294, -5.661e-6, 7.596e-6
0.293, -6.053e-6, 7.558e-6
0.292, -6.457e-6, 7.518e-6
0.291, -6.812e-6, 7.475e-6
0.290, -7.221e-6, 7.430e-6
0.289, -7.630e-6, 7.383e-6
0.288, -8.003e-6, 7.333e-6
0.287, -8.417e-6, 7.280e-6
0.286, -8.863e-6, 7.225e-6
0.285, -9.254e-6, 7.167e-6
0.284, -9.651e-6, 7.106e-6
0.283, -1.011e-5, 7.043e-6
0.282, -1.053e-5, 6.977e-6
0.281, -1.092e-5, 6.909e-6
0.280, -1.139e-5, 6.838e-6
0.279, -1.182e-5, 6.764e-6
0.278, -1.223e-5, 6.688e-6
0.277, -1.269e-5, 6.608e-6
0.276, -1.314e-5, 6.526e-6
0.275, -1.354e-5, 6.442e-6
0.274, -1.402e-5, 6.354e-6
0.273, -1.448e-5, 6.263e-6
0.272, -1.489e-5, 6.170e-6
0.271, -1.532e-5, 6.075e-6
0.270, -1.581e-5, 5.976e-6
0.269, -1.623e-5, 5.874e-6
0.268, -1.665e-5, 5.770e-6
0.267, -1.715e-5, 5.663e-6
0.266, -1.758e-5, 5.553e-6
0.265, -1.799e-5, 5.441e-6
0.264, -1.846e-5, 5.326e-6
0.263, -1.889e-5, 5.208e-6
0.262, -1.929e-5, 5.087e-6
0.261, -1.976e-5, 4.963e-6
0.260, -2.023e-5, 4.837e-6
0.259, -2.061e-5, 4.708e-6
0.258, -2.107e-5, 4.577e-6
0.257, -2.151e-5, 4.442e-6
0.256, -2.190e-5, 4.305e-6
0.255, -2.232e-5, 4.166e-6
0.254, -2.277e-5, 4.023e-6
0.253, -2.316e-5, 3.879e-6
0.252, -2.355e-5, 3.732e-6
0.251, -2.398e-5, 3.582e-6
0.250, -2.436e-5, 3.429e-6
0.249, -2.473e-5, 3.275e-6
0.248, -2.516e-5, 3.118e-6
0.247, -2.555e-5, 2.958e-6
0.246, -2.587e-5, 2.796e-6
0.245, -2.626e-5, 2.632e-6
0.244, -2.665e-5, 2.466e-6
0.243, -2.695e-5, 2.297e-6
0.242, -2.729e-5, 2.126e-6
0.241, -2.765e-5, 1.954e-6
0.240, -2.794e-5, 1.779e-6
0.239, -2.826e-5, 1.602e-6
0.238, -2.862e-5, 1.423e-6
0.237, -2.889e-5, 1.243e-6
0.236, -2.916e-5, 1.061e-6
0.235, -2.949e-5, 8.763e-7
0.234, -2.975e-5, 6.904e-7
0.233, -2.999e-5, 5.029e-7
0.232, -3.028e-5, 3.136e-7
0.231, -3.051e-5, 1.230e-7
0.230, -3.072e-5, -6.901e-8
0.229, -3.097e-5, -2.626e-7
0.228, -3.120e-5, -4.575e-7
0.227, -3.135e-5, -6.534e-7
0.226, -3.157e-5, -8.507e-7
0.225, -3.178e-5, -1.049e-6
0.224, -3.191e-5, -1.249e-6
0.223, -3.207e-5, -1.449e-6
0.222, -3.226e-5, -1.651e-6
0.221, -3.237e-5, -1.853e-6
0.220, -3.248e-5, -2.056e-6
0.219, -3.265e-5, -2.260e-6
0.218, -3.275e-5, -2.465e-6
0.217, -3.283e-5, -2.670e-6
0.216, -3.295e-5, -2.876e-6
0.215, -3.302e-5, -3.082e-6
0.214, -3.307e-5, -3.289e-6
0.213, -3.314e-5, -3.496e-6
0.212, -3.321e-5, -3.704e-6
0.211, -3.322e-5, -3.911e-6
0.210, -3.327e-5, -4.119e-6
0.209, -3.329e-5, -4.327e-6
0.208, -3.327e-5, -4.535e-6
0.207, -3.329e-5, -4.743e-6
0.206, -3.330e-5, -4.952e-6
0.205, -3.325e-5, -5.159e-6
0.204, -3.320e-5, -5.367e-6
0.203, -3.321e-5, -5.574e-6
0.202, -3.315e-5, -5.782e-6
0.201, -3.309e-5, -5.988e-6
0.200, -3.307e-5, -6.195e-6
0.199, -3.300e-5, -6.401e-6
0.198, -3.291e-5, -6.607e-6
0.197, -3.286e-5, -6.812e-6
0.196, -3.278e-5, -7.017e-6
0.195, -3.266e-5, -7.221e-6
0.194, -3.257e-5, -7.425e-6
0.193, -3.247e-5, -7.628e-6
0.192, -3.234e-5, -7.830e-6
0.191, -3.224e-5, -8.032e-6
0.190, -3.214e-5, -8.232e-6
0.189, -3.199e-5, -8.432e-6
0.188, -3.187e-5, -8.632e-6
0.187, -3.176e-5, -8.830e-6
0.186, -3.162e-5, -9.028e-6
0.185, -3.147e-5, -9.224e-6
0.184, -3.135e-5, -9.420e-6
0.183, -3.121e-5, -9.615e-6
0.182, -3.104e-5, -9.809e-6
0.181, -3.091e-5, -1.000e-5
0.180, -3.076e-5, -1.019e-5
0.179, -3.059e-5, -1.039e-5
0.178, -3.044e-5, -1.058e-5
0.177, -3.029e-5, -1.077e-5
0.176, -3.012e-5, -1.095e-5
0.175, -2.996e-5, -1.114e-5
0.174, -2.981e-5, -1.133e-5
0.173, -2.964e-5, -1.151e-5
0.172, -2.946e-5, -1.170e-5
0.171, -2.931e-5, -1.188e-5
0.170, -2.913e-5, -1.206e-5
0.169, -2.896e-5, -1.224e-5
0.168, -2.881e-5, -1.242e-5
0.167, -2.864e-5, -1.260e-5
0.166, -2.846e-5, -1.278e-5
0.165, -2.831e-5, -1.296e-5
0.164, -2.814e-5, -1.313e-5
0.163, -2.796e-5, -1.331e-5
0.162, -2.780e-5, -1.348e-5
0.161, -2.764e-5, -1.365e-5
0.160, -2.747e-5, -1.383e-5
0.159, -2.731e-5, -1.400e-5
0.158, -2.715e-5, -1.417e-5
0.157, -2.698e-5, -1.433e-5
0.156, -2.681e-5, -1.450e-5
0.155, -2.666e-5, -1.467e-5
0.154, -2.650e-5, -1.483e-5
0.153, -2.633e-5, -1.500e-5
0.152, -2.618e-5, -1.516e-5
0.151, -2.602e-5, -1.533e-5
0.150, -2.585e-5, -1.549e-5
0.149, -2.571e-5, -1.565e-5
0.148, -2.556e-5, -1.581e-5
0.147, -2.540e-5, -1.597e-5
0.146, -2.525e-5, -1.612e-5
0.145, -2.510e-5, -1.628e-5
0.144, -2.494e-5, -1.644e-5
0.143, -2.480e-5, -1.659e-5
0.142, -2.464e-5, -1.675e-5
0.141, -2.448e-5, -1.690e-5
0.140, -2.435e-5, -1.705e-5
0.139, -2.421e-5, -1.720e-5
0.138, -2.406e-5, -1.735e-5
0.137, -2.392e-5, -1.750e-5
0.136, -2.379e-5, -1.765e-5
0.135, -2.366e-5, -1.780e-5
0.134, -2.351e-5, -1.795e-5
0.133, -2.339e-5, -1.809e-5
0.132, -2.325e-5, -1.824e-5
0.131, -2.311e-5, -1.838e-5
0.130, -2.298e-5, -1.853e-5
0.129, -2.286e-5, -1.867e-5
0.128, -2.272e-5, -1.881e-5
0.127, -2.261e-5, -1.895e-5
0.126, -2.249e-5, -1.909e-5
0.125, -2.235e-5, -1.923e-5
0.124, -2.224e-5, -1.937e-5
0.123, -2.213e-5, -1.951e-5
0.122, -2.200e-5, -1.965e-5
0.121, -2.189e-5, -1.978e-5
0.120, -2.177e-5, -1.992e-5
0.119, -2.165e-5, -2.005e-5
0.118, -2.154e-5, -2.019e-5
0.117, -2.144e-5, -2.032e-5
0.116, -2.132e-5, -2.046e-5
0.115, -2.121e-5, -2.059e-5
0.114, -2.111e-5, -2.072e-5
0.113, -2.100e-5, -2.085e-5
0.112, -2.089e-5, -2.098e-5
0.111, -2.079e-5, -2.111e-5
0.110, -2.069e-5, -2.124e-5
0.109, -2.058e-5, -2.137e-5
0.108, -2.048e-5, -2.150e-5
0.107, -2.038e-5, -2.163e-5
0.106, -2.028e-5, -2.175e-5
0.105, -2.018e-5, -2.188e-5
0.104, -2.009e-5, -2.200e-5
0.103, -1.998e-5, -2.213e-5
0.102, -1.989e-5, -2.225e-5
0.101, -1.981e-5, -2.238e-5
0.100, -1.971e-5, -2.250e-5
0.099, -1.961e-5, -2.262e-5
0.098, -1.954e-5, -2.275e-5
0.097, -1.944e-5, -2.287e-5
0.096, -1.934e-5, -2.299e-5
0.095, -1.927e-5, -2.311e-5
0.094, -1.918e-5, -2.323e-5
0.093, -1.909e-5, -2.335e-5
0.092, -1.901e-5, -2.347e-5
0.091, -1.893e-5, -2.358e-5
0.090, -1.884e-5, -2.370e-5
0.089, -1.876e-5, -2.382e-5
0.088, -1.868e-5, -2.394e-5
0.087, -1.860e-5, -2.405e-5
0.086, -1.852e-5, -2.417e-5
0.085, -1.846e-5, -2.428e-5
0.084, -1.838e-5, -2.440e-5
0.083, -1.829e-5, -2.451e-5
0.082, -1.823e-5, -2.463e-5
0.081, -1.815e-5, -2.474e-5
0.080, -1.807e-5, -2.485e-5
0.079, -1.800e-5, -2.497e-5
0.078, -1.793e-5, -2.508e-5
0.077, -1.785e-5, -2.519e-5
0.076, -1.779e-5, -2.530e-5
0.075, -1.772e-5, -2.541e-5
0.074, -1.764e-5, -2.552e-5
0.073, -1.758e-5, -2.563e-5
0.072, -1.751e-5, -2.574e-5
0.071, -1.744e-5, -2.585e-5
0.070, -1.738e-5, -2.596e-5
0.069, -1.732e-5, -2.607e-5
0.068, -1.725e-5, -2.617e-5
0.067, -1.718e-5, -2.628e-5
0.066, -1.712e-5, -2.639e-5
0.065, -1.706e-5, -2.650e-5
0.064, -1.699e-5, -2.660e-5
0.063, -1.692e-5, -2.671e-5
0.062, -1.686e-5, -2.681e-5
0.061, -1.679e-5, -2.692e-5
0.060, -1.673e-5, -2.702e-5
0.059, -1.668e-5, -2.713e-5
0.058, -1.661e-5, -2.723e-5
0.057, -1.656e-5, -2.733e-5
0.056, -1.651e-5, -2.744e-5
0.055, -1.645e-5, -2.754e-5
0.054, -1.639e-5, -2.764e-5
0.053, -1.634e-5, -2.774e-5
0.052, -1.628e-5, -2.785e-5
0.051, -1.622e-5, -2.795e-5
0.050, -1.617e-5, -2.805e-5
0.049, -1.612e-5, -2.815e-5
0.048, -1.606e-5, -2.825e-5
0.047, -1.601e-5, -2.835e-5
0.046, -1.596e-5, -2.845e-5
0.045, -1.590e-5, -2.855e-5
0.044, -1.585e-5, -2.865e-5
0.043, -1.580e-5, -2.875e-5
0.042, -1.574e-5, -2.885e-5
0.041, -1.570e-5, -2.894e-5
0.040, -1.565e-5, -2.904e-5
0.039, -1.560e-5, -2.914e-5
0.038, -1.555e-5, -2.924e-5
0.037, -1.551e-5, -2.933e-5
0.036, -1.545e-5, -2.943e-5
0.035, -1.541e-5, -2.953e-5
0.034, -1.536e-5, -2.962e-5
0.033, -1.531e-5, -2.972e-5
0.032, -1.526e-5, -2.981e-5
0.031, -1.522e-5, -2.991e-5
0.030, -1.517e-5, -3.000e-5
0.029, -1.512e-5, -3.010e-5
0.028, -1.508e-5, -3.019e-5
0.027, -1.504e-5, -3.029e-5
0.026, -1.499e-5, -3.038e-5
0.025, -1.494e-5, -3.047e-5
0.024, -1.490e-5, -3.057e-5
0.023, -1.486e-5, -3.066e-5
0.022, -1.482e-5, -3.075e-5
0.021, -1.478e-5, -3.084e-5
0.020, -1.473e-5, -3.094e-5
0.019, -1.469e-5, -3.103e-5
0.018, -1.465e-5, -3.112e-5
0.017, -1.461e-5, -3.121e-5
0.016, -1.456e-5, -3.130e-5
0.015, -1.454e-5, -3.139e-5
0.014, -1.449e-5, -3.148e-5
0.013, -1.444e-5, -3.157e-5
0.012, -1.440e-5, -3.166e-5
0.011, -1.437e-5, -3.175e-5
0.010, -1.433e-5, -3.184e-5
0.009, -1.429e-5, -3.193e-5
0.008, -1.426e-5, -3.202e-5
0.007, -1.421e-5, -3.211e-5
0.006, -1.417e-5, -3.220e-5
0.005, -1.415e-5, -3.229e-5
0.004, -1.410e-5, -3.237e-5
0.003, -1.406e-5, -3.246e-5
0.002, -1.404e-5, -3.255e-5
0.001, -1.400e-5, -3.264e-5
0.000, -1.396e-5, -3.272e-5
-0.001, -1.393e-5, -3.281e-5
-0.002, -1.389e-5, -3.290e-5
-0.003, -1.385e-5, -3.299e-5
-0.004, -1.381e-5, -3.307e-5
-0.005, -1.377e-5, -3.316e-5
-0.006, -1.373e-5, -3.324e-5
-0.007, -1.370e-5, -3.333e-5
-0.008, -1.367e-5, -3.341e-5
-0.009, -1.363e-5, -3.350e-5
-0.010, -1.360e-5, -3.358e-5
-0.011, -1.357e-5, -3.367e-5
-0.012, -1.353e-5, -3.375e-5
-0.013, -1.350e-5, -3.384e-5
-0.014, -1.347e-5, -3.392e-5
-0.015, -1.344e-5, -3.401e-5
-0.016, -1.340e-5, -3.409e-5
-0.017, -1.337e-5, -3.417e-5
-0.018, -1.334e-5, -3.426e-5
-0.019, -1.331e-5, -3.434e-5
-0.020, -1.328e-5, -3.442e-5
-0.021, -1.326e-5, -3.451e-5
-0.022, -1.321e-5, -3.459e-5
-0.023, -1.318e-5, -3.467e-5
-0.024, -1.316e-5, -3.475e-5
-0.025, -1.313e-5, -3.484e-5
-0.026, -1.310e-5, -3.492e-5
-0.027, -1.308e-5, -3.500e-5
-0.028, -1.304e-5, -3.508e-5
-0.029, -1.301e-5, -3.516e-5
-0.030, -1.298e-5, -3.524e-5
-0.031, -1.295e-5, -3.532e-5
-0.032, -1.292e-5, -3.541e-5
-0.033, -1.290e-5, -3.549e-5
-0.034, -1.287e-5, -3.557e-5
-0.035, -1.283e-5, -3.565e-5
-0.036, -1.281e-5, -3.573e-5
-0.037, -1.278e-5, -3.581e-5
-0.038, -1.275e-5, -3.589e-5
-0.039, -1.273e-5, -3.597e-5
-0.040, -1.270e-5, -3.604e-5
-0.041, -1.267e-5, -3.612e-5
-0.042, -1.265e-5, -3.620e-5
-0.043, -1.263e-5, -3.628e-5
-0.044, -1.259e-5, -3.636e-5
-0.045, -1.257e-5, -3.644e-5
-0.046, -1.255e-5, -3.652e-5
-0.047, -1.252e-5, -3.660e-5
-0.048, -1.249e-5, -3.667e-5
-0.049, -1.247e-5, -3.675e-5
-0.050, -1.232e-5, -3.683e-5

Segment 4:
-0.049, -1.212e-5, -3.690e-5
-0.048, -1.206e-5, -3.698e-5
-0.047, -1.201e-5, -3.706e-5
-0.046, -1.196e-5, -3.713e-5
-0.045, -1.192e-5, -3.720e-5
-0.044, -1.189e-5, -3.728e-5
-0.043, -1.184e-5, -3.735e-5
-0.042, -1.180e-5, -3.743e-5
-0.041, -1.177e-5, -3.750e-5
-0.040, -1.173e-5, -3.757e-5
-0.039, -1.170e-5, -3.765e-5
-0.038, -1.166e-5, -3.772e-5
-0.037, -1.163e-5, -3.779e-5
-0.036, -1.159e-5, -3.786e-5
-0.035, -1.156e-5, -3.794e-5
-0.034, -1.153e-5, -3.801e-5
-0.033, -1.150e-5, -3.808e-5
-0.032, -1.147e-5, -3.815e-5
-0.031, -1.144e-5, -3.822e-5
-0.030, -1.141e-5, -3.830e-5
-0.029, -1.138e-5, -3.837e-5
-0.028, -1.135e-5, -3.844e-5
-0.027, -1.132e-5, -3.851e-5
-0.026, -1.128e-5, -3.858e-5
-0.025, -1.127e-5, -3.865e-5
-0.024, -1.123e-5, -3.872e-5
-0.023, -1.120e-5, -3.879e-5
-0.022, -1.118e-5, -3.886e-5
-0.021, -1.115e-5, -3.893e-5
-0.020, -1.112e-5, -3.900e-5
-0.019, -1.110e-5, -3.907e-5
-0.018, -1.107e-5, -3.914e-5
-0.017, -1.103e-5, -3.921e-5
-0.016, -1.102e-5, -3.927e-5
-0.015, -1.099e-5, -3.934e-5
-0.014, -1.096e-5, -3.941e-5
-0.013, -1.093e-5, -3.948e-5
-0.012, -1.091e-5, -3.955e-5
-0.011, -1.088e-5, -3.962e-5
-0.010, -1.085e-5, -3.968e-5
-0.009, -1.083e-5, -3.975e-5
-0.008, -1.081e-5, -3.982e-5
-0.007, -1.078e-5, -3.989e-5
-0.006, -1.076e-5, -3.995e-5
-0.005, -1.073e-5, -4.002e-5
-0.004, -1.069e-5, -4.009e-5
-0.003, -1.068e-5, -4.015e-5
-0.002, -1.064e-5, -4.022e-5
-0.001, -1.062e-5, -4.029e-5
-0.000, -1.059e-5, -4.035e-5
0.001, -1.058e-5, -4.042e-5
0.002, -1.054e-5, -4.049e-5
0.003, -1.053e-5, -4.055e-5
0.004, -1.051e-5, -4.062e-5
0.005, -1.048e-5, -4.068e-5
0.006, -1.045e-5, -4.075e-5
0.007, -1.044e-5, -4.081e-5
0.008, -1.041e-5, -4.088e-5
0.009, -1.039e-5, -4.094e-5
0.010, -1.037e-5, -4.101e-5
0.011, -1.034e-5, -4.107e-5
0.012, -1.032e-5, -4.114e-5
0.013, -1.030e-5, -4.120e-5
0.014, -1.028e-5, -4.127e-5
0.015, -1.025e-5, -4.133e-5
0.016, -1.024e-5, -4.139e-5
0.017, -1.021e-5, -4.146e-5
0.018, -1.018e-5, -4.152e-5
0.019, -1.016e-5, -4.158e-5
0.020, -1.015e-5, -4.165e-5
0.021, -1.012e-5, -4.171e-5
0.022, -1.010e-5, -4.177e-5
0.023, -1.009e-5, -4.184e-5
0.024, -1.006e-5, -4.190e-5
