Mar. 30, 2023   16:26:07
Cyclic Voltammetry
File: 05mmol80mvs
Data Source:  Experiment
Instrument Model:  CHI600B
Header: 
Note: 

Init E (V) = 0.268
High E (V) = 0.5
Low E (V) = -0.05
Init P/N = N
Scan Rate (V/s) = 0.08
Segment = 4
Sample Interval (V) = 0.001
Quiet Time (sec) = 2
Sensitivity (A/V) = 1e-5

Segment 1:

Segment 2:
Ep = 0.308V
ip = 2.982e-5A
Ah = 2.711e-5C

Segment 3:
Ep = 0.213V
ip = -2.767e-5A
Ah = -2.487e-5C

Segment 4:

Potential/V, Current/A, Charge/C

Segment 1:
0.267, 5.367e-7, 6.709e-9
0.266, -5.711e-7, -4.302e-10
0.265, -1.518e-6, -1.941e-8
0.264, -2.378e-6, -4.913e-8
0.263, -3.187e-6, -8.897e-8
0.262, -3.900e-6, -1.377e-7
0.261, -4.639e-6, -1.957e-7
0.260, -5.277e-6, -2.617e-7
0.259, -5.911e-6, -3.356e-7
0.258, -6.520e-6, -4.171e-7
0.257, -7.082e-6, -5.056e-7
0.256, -7.647e-6, -6.012e-7
0.255, -8.208e-6, -7.038e-7
0.254, -8.697e-6, -8.125e-7
0.253, -9.225e-6, -9.278e-7
0.252, -9.694e-6, -1.049e-6
0.251, -1.017e-5, -1.176e-6
0.250, -1.063e-5, -1.309e-6
0.249, -1.107e-5, -1.447e-6
0.248, -1.149e-5, -1.591e-6
0.247, -1.193e-5, -1.740e-6
0.246, -1.231e-5, -1.894e-6
0.245, -1.272e-5, -2.053e-6
0.244, -1.308e-5, -2.216e-6
0.243, -1.344e-5, -2.384e-6
0.242, -1.381e-5, -2.557e-6
0.241, -1.415e-5, -2.734e-6
0.240, -1.448e-5, -2.915e-6
0.239, -1.481e-5, -3.100e-6
0.238, -1.509e-5, -3.289e-6
0.237, -1.542e-5, -3.482e-6
0.236, -1.569e-5, -3.678e-6
0.235, -1.596e-5, -3.877e-6
0.234, -1.623e-5, -4.080e-6
0.233, -1.647e-5, -4.286e-6
0.232, -1.671e-5, -4.495e-6
0.231, -1.695e-5, -4.707e-6
0.230, -1.715e-5, -4.921e-6
0.229, -1.738e-5, -5.139e-6
0.228, -1.756e-5, -5.358e-6
0.227, -1.776e-5, -5.580e-6
0.226, -1.794e-5, -5.804e-6
0.225, -1.809e-5, -6.031e-6
0.224, -1.825e-5, -6.259e-6
0.223, -1.842e-5, -6.489e-6
0.222, -1.852e-5, -6.720e-6
0.221, -1.869e-5, -6.954e-6
0.220, -1.879e-5, -7.189e-6
0.219, -1.890e-5, -7.425e-6
0.218, -1.900e-5, -7.663e-6
0.217, -1.909e-5, -7.901e-6
0.216, -1.917e-5, -8.141e-6
0.215, -1.926e-5, -8.382e-6
0.214, -1.930e-5, -8.623e-6
0.213, -1.938e-5, -8.865e-6
0.212, -1.940e-5, -9.108e-6
0.211, -1.946e-5, -9.351e-6
0.210, -1.949e-5, -9.594e-6
0.209, -1.952e-5, -9.838e-6
0.208, -1.953e-5, -1.008e-5
0.207, -1.956e-5, -1.033e-5
0.206, -1.953e-5, -1.057e-5
0.205, -1.955e-5, -1.082e-5
0.204, -1.952e-5, -1.106e-5
0.203, -1.951e-5, -1.130e-5
0.202, -1.949e-5, -1.155e-5
0.201, -1.947e-5, -1.179e-5
0.200, -1.943e-5, -1.203e-5
0.199, -1.942e-5, -1.228e-5
0.198, -1.935e-5, -1.252e-5
0.197, -1.933e-5, -1.276e-5
0.196, -1.928e-5, -1.300e-5
0.195, -1.923e-5, -1.324e-5
0.194, -1.917e-5, -1.348e-5
0.193, -1.910e-5, -1.372e-5
0.192, -1.904e-5, -1.396e-5
0.191, -1.899e-5, -1.419e-5
0.190, -1.890e-5, -1.443e-5
0.189, -1.884e-5, -1.467e-5
0.188, -1.876e-5, -1.490e-5
0.187, -1.868e-5, -1.513e-5
0.186, -1.860e-5, -1.537e-5
0.185, -1.852e-5, -1.560e-5
0.184, -1.844e-5, -1.583e-5
0.183, -1.836e-5, -1.606e-5
0.182, -1.826e-5, -1.629e-5
0.181, -1.819e-5, -1.651e-5
0.180, -1.808e-5, -1.674e-5
0.179, -1.800e-5, -1.696e-5
0.178, -1.790e-5, -1.719e-5
0.177, -1.782e-5, -1.741e-5
0.176, -1.771e-5, -1.763e-5
0.175, -1.763e-5, -1.785e-5
0.174, -1.752e-5, -1.807e-5
0.173, -1.744e-5, -1.829e-5
0.172, -1.733e-5, -1.851e-5
0.171, -1.724e-5, -1.872e-5
0.170, -1.714e-5, -1.894e-5
0.169, -1.705e-5, -1.915e-5
0.168, -1.694e-5, -1.936e-5
0.167, -1.685e-5, -1.957e-5
0.166, -1.674e-5, -1.978e-5
0.165, -1.666e-5, -1.999e-5
0.164, -1.655e-5, -2.020e-5
0.163, -1.646e-5, -2.040e-5
0.162, -1.636e-5, -2.061e-5
0.161, -1.627e-5, -2.081e-5
0.160, -1.617e-5, -2.101e-5
0.159, -1.609e-5, -2.121e-5
0.158, -1.598e-5, -2.141e-5
0.157, -1.590e-5, -2.161e-5
0.156, -1.580e-5, -2.181e-5
0.155, -1.572e-5, -2.201e-5
0.154, -1.563e-5, -2.220e-5
0.153, -1.554e-5, -2.240e-5
0.152, -1.544e-5, -2.259e-5
0.151, -1.536e-5, -2.278e-5
0.150, -1.525e-5, -2.297e-5
0.149, -1.518e-5, -2.316e-5
0.148, -1.509e-5, -2.335e-5
0.147, -1.501e-5, -2.354e-5
0.146, -1.492e-5, -2.372e-5
0.145, -1.484e-5, -2.391e-5
0.144, -1.475e-5, -2.409e-5
0.143, -1.468e-5, -2.428e-5
0.142, -1.459e-5, -2.446e-5
0.141, -1.452e-5, -2.464e-5
0.140, -1.443e-5, -2.482e-5
0.139, -1.436e-5, -2.500e-5
0.138, -1.428e-5, -2.518e-5
0.137, -1.421e-5, -2.536e-5
0.136, -1.413e-5, -2.553e-5
0.135, -1.406e-5, -2.571e-5
0.134, -1.397e-5, -2.588e-5
0.133, -1.391e-5, -2.606e-5
0.132, -1.383e-5, -2.623e-5
0.131, -1.375e-5, -2.640e-5
0.130, -1.368e-5, -2.657e-5
0.129, -1.361e-5, -2.674e-5
0.128, -1.353e-5, -2.691e-5
0.127, -1.348e-5, -2.708e-5
0.126, -1.339e-5, -2.725e-5
0.125, -1.334e-5, -2.742e-5
0.124, -1.327e-5, -2.758e-5
0.123, -1.321e-5, -2.775e-5
0.122, -1.314e-5, -2.791e-5
0.121, -1.308e-5, -2.807e-5
0.120, -1.301e-5, -2.824e-5
0.119, -1.296e-5, -2.840e-5
0.118, -1.289e-5, -2.856e-5
0.117, -1.284e-5, -2.872e-5
0.116, -1.277e-5, -2.888e-5
0.115, -1.272e-5, -2.904e-5
0.114, -1.266e-5, -2.920e-5
0.113, -1.260e-5, -2.936e-5
0.112, -1.254e-5, -2.951e-5
0.111, -1.249e-5, -2.967e-5
0.110, -1.242e-5, -2.982e-5
0.109, -1.238e-5, -2.998e-5
0.108, -1.232e-5, -3.013e-5
0.107, -1.227e-5, -3.029e-5
0.106, -1.220e-5, -3.044e-5
0.105, -1.216e-5, -3.059e-5
0.104, -1.210e-5, -3.074e-5
0.103, -1.206e-5, -3.089e-5
0.102, -1.200e-5, -3.104e-5
0.101, -1.196e-5, -3.119e-5
0.100, -1.191e-5, -3.134e-5
0.099, -1.186e-5, -3.149e-5
0.098, -1.181e-5, -3.164e-5
0.097, -1.177e-5, -3.178e-5
0.096, -1.171e-5, -3.193e-5
0.095, -1.168e-5, -3.208e-5
0.094, -1.162e-5, -3.222e-5
0.093, -1.159e-5, -3.237e-5
0.092, -1.153e-5, -3.251e-5
0.091, -1.150e-5, -3.265e-5
0.090, -1.145e-5, -3.280e-5
0.089, -1.142e-5, -3.294e-5
0.088, -1.136e-5, -3.308e-5
0.087, -1.133e-5, -3.322e-5
0.086, -1.127e-5, -3.336e-5
0.085, -1.125e-5, -3.350e-5
0.084, -1.120e-5, -3.364e-5
0.083, -1.117e-5, -3.378e-5
0.082, -1.112e-5, -3.392e-5
0.081, -1.108e-5, -3.406e-5
0.080, -1.104e-5, -3.420e-5
0.079, -1.101e-5, -3.434e-5
0.078, -1.096e-5, -3.447e-5
0.077, -1.093e-5, -3.461e-5
0.076, -1.088e-5, -3.475e-5
0.075, -1.086e-5, -3.488e-5
0.074, -1.082e-5, -3.502e-5
0.073, -1.078e-5, -3.515e-5
0.072, -1.074e-5, -3.529e-5
0.071, -1.072e-5, -3.542e-5
0.070, -1.065e-5, -3.555e-5
0.069, -1.064e-5, -3.569e-5
0.068, -1.059e-5, -3.582e-5
0.067, -1.057e-5, -3.595e-5
0.066, -1.053e-5, -3.608e-5
0.065, -1.049e-5, -3.621e-5
0.064, -1.045e-5, -3.635e-5
0.063, -1.044e-5, -3.648e-5
0.062, -1.039e-5, -3.661e-5
0.061, -1.038e-5, -3.674e-5
0.060, -1.034e-5, -3.686e-5
0.059, -1.031e-5, -3.699e-5
0.058, -1.027e-5, -3.712e-5
0.057, -1.025e-5, -3.725e-5
0.056, -1.021e-5, -3.738e-5
0.055, -1.019e-5, -3.750e-5
0.054, -1.015e-5, -3.763e-5
0.053, -1.013e-5, -3.776e-5
0.052, -1.009e-5, -3.788e-5
0.051, -1.007e-5, -3.801e-5
0.050, -1.004e-5, -3.814e-5
0.049, -1.001e-5, -3.826e-5
0.048, -9.976e-6, -3.839e-5
0.047, -9.960e-6, -3.851e-5
0.046, -9.918e-6, -3.863e-5
0.045, -9.906e-6, -3.876e-5
0.044, -9.865e-6, -3.888e-5
0.043, -9.853e-6, -3.900e-5
0.042, -9.816e-6, -3.913e-5
0.041, -9.804e-6, -3.925e-5
0.040, -9.762e-6, -3.937e-5
0.039, -9.755e-6, -3.949e-5
0.038, -9.711e-6, -3.961e-5
0.037, -9.702e-6, -3.974e-5
0.036, -9.661e-6, -3.986e-5
0.035, -9.651e-6, -3.998e-5
0.034, -9.614e-6, -4.010e-5
0.033, -9.605e-6, -4.022e-5
0.032, -9.565e-6, -4.034e-5
0.031, -9.558e-6, -4.046e-5
0.030, -9.516e-6, -4.058e-5
0.029, -9.509e-6, -4.069e-5
0.028, -9.469e-6, -4.081e-5
0.027, -9.460e-6, -4.093e-5
0.026, -9.426e-6, -4.105e-5
0.025, -9.415e-6, -4.117e-5
0.024, -9.378e-6, -4.128e-5
0.023, -9.368e-6, -4.140e-5
0.022, -9.333e-6, -4.152e-5
0.021, -9.321e-6, -4.163e-5
0.020, -9.287e-6, -4.175e-5
0.019, -9.274e-6, -4.187e-5
0.018, -9.250e-6, -4.198e-5
0.017, -9.231e-6, -4.210e-5
0.016, -9.206e-6, -4.221e-5
0.015, -9.200e-6, -4.233e-5
0.014, -9.166e-6, -4.244e-5
0.013, -9.159e-6, -4.256e-5
0.012, -9.121e-6, -4.267e-5
0.011, -9.113e-6, -4.278e-5
0.010, -9.077e-6, -4.290e-5
0.009, -9.073e-6, -4.301e-5
0.008, -9.037e-6, -4.312e-5
0.007, -9.028e-6, -4.324e-5
0.006, -8.996e-6, -4.335e-5
0.005, -8.988e-6, -4.346e-5
0.004, -8.968e-6, -4.357e-5
0.003, -8.951e-6, -4.369e-5
0.002, -8.925e-6, -4.380e-5
0.001, -8.922e-6, -4.391e-5
-0.000, -8.883e-6, -4.402e-5
-0.001, -8.880e-6, -4.413e-5
-0.002, -8.848e-6, -4.424e-5
-0.003, -8.839e-6, -4.435e-5
-0.004, -8.817e-6, -4.446e-5
-0.005, -8.805e-6, -4.457e-5
-0.006, -8.782e-6, -4.468e-5
-0.007, -8.778e-6, -4.479e-5
-0.008, -8.741e-6, -4.490e-5
-0.009, -8.736e-6, -4.501e-5
-0.010, -8.704e-6, -4.512e-5
-0.011, -8.700e-6, -4.523e-5
-0.012, -8.681e-6, -4.534e-5
-0.013, -8.671e-6, -4.544e-5
-0.014, -8.642e-6, -4.555e-5
-0.015, -8.635e-6, -4.566e-5
-0.016, -8.608e-6, -4.577e-5
-0.017, -8.599e-6, -4.588e-5
-0.018, -8.582e-6, -4.598e-5
-0.019, -8.577e-6, -4.609e-5
-0.020, -8.542e-6, -4.620e-5
-0.021, -8.537e-6, -4.630e-5
-0.022, -8.512e-6, -4.641e-5
-0.023, -8.500e-6, -4.652e-5
-0.024, -8.483e-6, -4.662e-5
-0.025, -8.483e-6, -4.673e-5
-0.026, -8.446e-6, -4.683e-5
-0.027, -8.442e-6, -4.694e-5
-0.028, -8.421e-6, -4.704e-5
-0.029, -8.413e-6, -4.715e-5
-0.030, -8.392e-6, -4.725e-5
-0.031, -8.389e-6, -4.736e-5
-0.032, -8.358e-6, -4.746e-5
-0.033, -8.353e-6, -4.757e-5
-0.034, -8.331e-6, -4.767e-5
-0.035, -8.330e-6, -4.778e-5
-0.036, -8.297e-6, -4.788e-5
-0.037, -8.294e-6, -4.798e-5
-0.038, -8.281e-6, -4.809e-5
-0.039, -8.269e-6, -4.819e-5
-0.040, -8.245e-6, -4.829e-5
-0.041, -8.244e-6, -4.840e-5
-0.042, -8.216e-6, -4.850e-5
-0.043, -8.211e-6, -4.860e-5
-0.044, -8.195e-6, -4.871e-5
-0.045, -8.191e-6, -4.881e-5
-0.046, -8.166e-6, -4.891e-5
-0.047, -8.154e-6, -4.901e-5
-0.048, -8.139e-6, -4.911e-5
-0.049, -8.141e-6, -4.921e-5
-0.050, -8.074e-6, -4.932e-5

Segment 2:
-0.049, -7.974e-6, -4.942e-5
-0.048, -7.916e-6, -4.951e-5
-0.047, -7.900e-6, -4.961e-5
-0.046, -7.866e-6, -4.971e-5
-0.045, -7.853e-6, -4.981e-5
-0.044, -7.818e-6, -4.991e-5
-0.043, -7.806e-6, -5.001e-5
-0.042, -7.777e-6, -5.010e-5
-0.041, -7.765e-6, -5.020e-5
-0.040, -7.738e-6, -5.030e-5
-0.039, -7.723e-6, -5.039e-5
-0.038, -7.704e-6, -5.049e-5
-0.037, -7.698e-6, -5.059e-5
-0.036, -7.661e-6, -5.068e-5
-0.035, -7.659e-6, -5.078e-5
-0.034, -7.626e-6, -5.087e-5
-0.033, -7.620e-6, -5.097e-5
-0.032, -7.601e-6, -5.106e-5
-0.031, -7.590e-6, -5.116e-5
-0.030, -7.556e-6, -5.125e-5
-0.029, -7.550e-6, -5.135e-5
-0.028, -7.514e-6, -5.144e-5
-0.027, -7.513e-6, -5.153e-5
-0.026, -7.485e-6, -5.163e-5
-0.025, -7.479e-6, -5.172e-5
-0.024, -7.458e-6, -5.181e-5
-0.023, -7.453e-6, -5.191e-5
-0.022, -7.422e-6, -5.200e-5
-0.021, -7.416e-6, -5.209e-5
-0.020, -7.400e-6, -5.219e-5
-0.019, -7.391e-6, -5.228e-5
-0.018, -7.363e-6, -5.237e-5
-0.017, -7.365e-6, -5.246e-5
-0.016, -7.329e-6, -5.255e-5
-0.015, -7.325e-6, -5.264e-5
-0.014, -7.312e-6, -5.274e-5
-0.013, -7.308e-6, -5.283e-5
-0.012, -7.275e-6, -5.292e-5
-0.011, -7.271e-6, -5.301e-5
-0.010, -7.251e-6, -5.310e-5
-0.009, -7.253e-6, -5.319e-5
-0.008, -7.221e-6, -5.328e-5
-0.007, -7.219e-6, -5.337e-5
-0.006, -7.203e-6, -5.346e-5
-0.005, -7.194e-6, -5.355e-5
-0.004, -7.168e-6, -5.364e-5
-0.003, -7.170e-6, -5.373e-5
-0.002, -7.135e-6, -5.382e-5
-0.001, -7.137e-6, -5.391e-5
0.000, -7.119e-6, -5.400e-5
0.001, -7.116e-6, -5.409e-5
0.002, -7.090e-6, -5.418e-5
0.003, -7.079e-6, -5.426e-5
0.004, -7.067e-6, -5.435e-5
0.005, -7.069e-6, -5.444e-5
0.006, -7.032e-6, -5.453e-5
0.007, -7.030e-6, -5.462e-5
0.008, -7.022e-6, -5.470e-5
0.009, -7.016e-6, -5.479e-5
0.010, -6.993e-6, -5.488e-5
0.011, -6.980e-6, -5.497e-5
0.012, -6.963e-6, -5.505e-5
0.013, -6.969e-6, -5.514e-5
0.014, -6.931e-6, -5.523e-5
0.015, -6.932e-6, -5.531e-5
0.016, -6.918e-6, -5.540e-5
0.017, -6.916e-6, -5.549e-5
0.018, -6.887e-6, -5.557e-5
0.019, -6.881e-6, -5.566e-5
0.020, -6.868e-6, -5.574e-5
0.021, -6.871e-6, -5.583e-5
0.022, -6.836e-6, -5.592e-5
0.023, -6.835e-6, -5.600e-5
0.024, -6.825e-6, -5.609e-5
0.025, -6.822e-6, -5.617e-5
0.026, -6.796e-6, -5.626e-5
0.027, -6.788e-6, -5.634e-5
0.028, -6.773e-6, -5.643e-5
0.029, -6.776e-6, -5.651e-5
0.030, -6.741e-6, -5.660e-5
0.031, -6.741e-6, -5.668e-5
0.032, -6.728e-6, -5.676e-5
0.033, -6.726e-6, -5.685e-5
0.034, -6.703e-6, -5.693e-5
0.035, -6.691e-6, -5.702e-5
0.036, -6.680e-6, -5.710e-5
0.037, -6.681e-6, -5.718e-5
0.038, -6.653e-6, -5.727e-5
0.039, -6.652e-6, -5.735e-5
0.040, -6.634e-6, -5.743e-5
0.041, -6.632e-6, -5.751e-5
0.042, -6.620e-6, -5.760e-5
0.043, -6.604e-6, -5.768e-5
0.044, -6.587e-6, -5.776e-5
0.045, -6.585e-6, -5.784e-5
0.046, -6.561e-6, -5.793e-5
0.047, -6.568e-6, -5.801e-5
0.048, -6.539e-6, -5.809e-5
0.049, -6.537e-6, -5.817e-5
0.050, -6.527e-6, -5.825e-5
0.051, -6.520e-6, -5.834e-5
0.052, -6.494e-6, -5.842e-5
0.053, -6.490e-6, -5.850e-5
0.054, -6.478e-6, -5.858e-5
0.055, -6.478e-6, -5.866e-5
0.056, -6.450e-6, -5.874e-5
0.057, -6.443e-6, -5.882e-5
0.058, -6.436e-6, -5.890e-5
0.059, -6.433e-6, -5.898e-5
0.060, -6.408e-6, -5.906e-5
0.061, -6.402e-6, -5.914e-5
0.062, -6.386e-6, -5.922e-5
0.063, -6.386e-6, -5.930e-5
0.064, -6.360e-6, -5.938e-5
0.065, -6.352e-6, -5.946e-5
0.066, -6.341e-6, -5.954e-5
0.067, -6.338e-6, -5.962e-5
0.068, -6.319e-6, -5.970e-5
0.069, -6.312e-6, -5.978e-5
0.070, -6.292e-6, -5.986e-5
0.071, -6.291e-6, -5.993e-5
0.072, -6.275e-6, -6.001e-5
0.073, -6.261e-6, -6.009e-5
0.074, -6.248e-6, -6.017e-5
0.075, -6.242e-6, -6.025e-5
0.076, -6.228e-6, -6.032e-5
0.077, -6.222e-6, -6.040e-5
0.078, -6.192e-6, -6.048e-5
0.079, -6.195e-6, -6.056e-5
0.080, -6.168e-6, -6.063e-5
0.081, -6.169e-6, -6.071e-5
0.082, -6.145e-6, -6.079e-5
0.083, -6.145e-6, -6.086e-5
0.084, -6.118e-6, -6.094e-5
0.085, -6.124e-6, -6.102e-5
0.086, -6.094e-6, -6.109e-5
0.087, -6.096e-6, -6.117e-5
0.088, -6.070e-6, -6.125e-5
0.089, -6.067e-6, -6.132e-5
0.090, -6.047e-6, -6.140e-5
0.091, -6.046e-6, -6.147e-5
0.092, -6.018e-6, -6.155e-5
0.093, -6.019e-6, -6.162e-5
0.094, -5.993e-6, -6.170e-5
0.095, -5.997e-6, -6.177e-5
0.096, -5.962e-6, -6.185e-5
0.097, -5.959e-6, -6.192e-5
0.098, -5.946e-6, -6.200e-5
0.099, -5.943e-6, -6.207e-5
0.100, -5.908e-6, -6.214e-5
0.101, -5.904e-6, -6.222e-5
0.102, -5.880e-6, -6.229e-5
0.103, -5.881e-6, -6.237e-5
0.104, -5.851e-6, -6.244e-5
0.105, -5.849e-6, -6.251e-5
0.106, -5.819e-6, -6.258e-5
0.107, -5.807e-6, -6.266e-5
0.108, -5.788e-6, -6.273e-5
0.109, -5.787e-6, -6.280e-5
0.110, -5.753e-6, -6.287e-5
0.111, -5.753e-6, -6.295e-5
0.112, -5.715e-6, -6.302e-5
0.113, -5.708e-6, -6.309e-5
0.114, -5.687e-6, -6.316e-5
0.115, -5.672e-6, -6.323e-5
0.116, -5.652e-6, -6.330e-5
0.117, -5.650e-6, -6.337e-5
0.118, -5.607e-6, -6.344e-5
0.119, -5.605e-6, -6.351e-5
0.120, -5.564e-6, -6.358e-5
0.121, -5.559e-6, -6.365e-5
0.122, -5.530e-6, -6.372e-5
0.123, -5.512e-6, -6.379e-5
0.124, -5.485e-6, -6.386e-5
0.125, -5.468e-6, -6.393e-5
0.126, -5.444e-6, -6.399e-5
0.127, -5.429e-6, -6.406e-5
0.128, -5.390e-6, -6.413e-5
0.129, -5.375e-6, -6.420e-5
0.130, -5.349e-6, -6.426e-5
0.131, -5.321e-6, -6.433e-5
0.132, -5.293e-6, -6.440e-5
0.133, -5.271e-6, -6.446e-5
0.134, -5.236e-6, -6.453e-5
0.135, -5.220e-6, -6.459e-5
0.136, -5.175e-6, -6.466e-5
0.137, -5.163e-6, -6.472e-5
0.138, -5.122e-6, -6.479e-5
0.139, -5.099e-6, -6.485e-5
0.140, -5.065e-6, -6.491e-5
0.141, -5.031e-6, -6.498e-5
0.142, -4.987e-6, -6.504e-5
0.143, -4.971e-6, -6.510e-5
0.144, -4.923e-6, -6.516e-5
0.145, -4.893e-6, -6.522e-5
0.146, -4.855e-6, -6.528e-5
0.147, -4.820e-6, -6.534e-5
0.148, -4.775e-6, -6.540e-5
0.149, -4.736e-6, -6.546e-5
0.150, -4.690e-6, -6.552e-5
0.151, -4.664e-6, -6.558e-5
0.152, -4.599e-6, -6.564e-5
0.153, -4.568e-6, -6.569e-5
0.154, -4.512e-6, -6.575e-5
0.155, -4.471e-6, -6.581e-5
0.156, -4.398e-6, -6.586e-5
0.157, -4.360e-6, -6.592e-5
0.158, -4.294e-6, -6.597e-5
0.159, -4.254e-6, -6.602e-5
0.160, -4.186e-6, -6.608e-5
0.161, -4.140e-6, -6.613e-5
0.162, -4.079e-6, -6.618e-5
0.163, -4.020e-6, -6.623e-5
0.164, -3.954e-6, -6.628e-5
0.165, -3.897e-6, -6.633e-5
0.166, -3.816e-6, -6.637e-5
0.167, -3.764e-6, -6.642e-5
0.168, -3.684e-6, -6.647e-5
0.169, -3.623e-6, -6.651e-5
0.170, -3.541e-6, -6.656e-5
0.171, -3.465e-6, -6.660e-5
0.172, -3.384e-6, -6.664e-5
0.173, -3.311e-6, -6.668e-5
0.174, -3.218e-6, -6.672e-5
0.175, -3.146e-6, -6.676e-5
0.176, -3.039e-6, -6.680e-5
0.177, -2.962e-6, -6.684e-5
0.178, -2.855e-6, -6.687e-5
0.179, -2.766e-6, -6.691e-5
0.180, -2.662e-6, -6.694e-5
0.181, -2.566e-6, -6.697e-5
0.182, -2.454e-6, -6.700e-5
0.183, -2.358e-6, -6.703e-5
0.184, -2.236e-6, -6.706e-5
0.185, -2.134e-6, -6.709e-5
0.186, -2.008e-6, -6.711e-5
0.187, -1.889e-6, -6.714e-5
0.188, -1.773e-6, -6.716e-5
0.189, -1.644e-6, -6.718e-5
0.190, -1.505e-6, -6.720e-5
0.191, -1.386e-6, -6.722e-5
0.192, -1.221e-6, -6.723e-5
0.193, -1.088e-6, -6.725e-5
0.194, -9.386e-7, -6.726e-5
0.195, -7.872e-7, -6.727e-5
0.196, -6.332e-7, -6.727e-5
0.197, -4.803e-7, -6.728e-5
0.198, -3.171e-7, -6.728e-5
0.199, -1.627e-7, -6.729e-5
0.200, 2.920e-8, -6.729e-5
0.201, 1.900e-7, -6.728e-5
0.202, 3.955e-7, -6.728e-5
0.203, 5.649e-7, -6.727e-5
0.204, 7.535e-7, -6.726e-5
0.205, 9.242e-7, -6.725e-5
0.206, 1.133e-6, -6.724e-5
0.207, 1.313e-6, -6.722e-5
0.208, 1.548e-6, -6.720e-5
0.209, 1.738e-6, -6.718e-5
0.210, 1.975e-6, -6.715e-5
0.211, 2.184e-6, -6.713e-5
0.212, 2.414e-6, -6.710e-5
0.213, 2.631e-6, -6.706e-5
0.214, 2.882e-6, -6.703e-5
0.215, 3.091e-6, -6.699e-5
0.216, 3.368e-6, -6.695e-5
0.217, 3.581e-6, -6.690e-5
0.218, 3.851e-6, -6.685e-5
0.219, 4.099e-6, -6.680e-5
0.220, 4.357e-6, -6.675e-5
0.221, 4.614e-6, -6.669e-5
0.222, 4.903e-6, -6.663e-5
0.223, 5.155e-6, -6.657e-5
0.224, 5.455e-6, -6.650e-5
0.225, 5.711e-6, -6.643e-5
0.226, 6.020e-6, -6.635e-5
0.227, 6.311e-6, -6.627e-5
0.228, 6.591e-6, -6.619e-5
0.229, 6.878e-6, -6.610e-5
0.230, 7.191e-6, -6.601e-5
0.231, 7.471e-6, -6.592e-5
0.232, 7.813e-6, -6.582e-5
0.233, 8.102e-6, -6.572e-5
0.234, 8.435e-6, -6.562e-5
0.235, 8.752e-6, -6.551e-5
0.236, 9.076e-6, -6.539e-5
0.237, 9.400e-6, -6.528e-5
0.238, 9.747e-6, -6.515e-5
0.239, 1.005e-5, -6.503e-5
0.240, 1.041e-5, -6.490e-5
0.241, 1.071e-5, -6.476e-5
0.242, 1.106e-5, -6.463e-5
0.243, 1.141e-5, -6.448e-5
0.244, 1.174e-5, -6.434e-5
0.245, 1.208e-5, -6.419e-5
0.246, 1.243e-5, -6.403e-5
0.247, 1.276e-5, -6.387e-5
0.248, 1.314e-5, -6.371e-5
0.249, 1.346e-5, -6.354e-5
0.250, 1.382e-5, -6.337e-5
0.251, 1.415e-5, -6.319e-5
0.252, 1.450e-5, -6.301e-5
0.253, 1.485e-5, -6.282e-5
0.254, 1.520e-5, -6.263e-5
0.255, 1.553e-5, -6.244e-5
0.256, 1.590e-5, -6.224e-5
0.257, 1.622e-5, -6.204e-5
0.258, 1.657e-5, -6.183e-5
0.259, 1.691e-5, -6.162e-5
0.260, 1.723e-5, -6.140e-5
0.261, 1.758e-5, -6.118e-5
0.262, 1.792e-5, -6.096e-5
0.263, 1.821e-5, -6.073e-5
0.264, 1.856e-5, -6.050e-5
0.265, 1.886e-5, -6.026e-5
0.266, 1.919e-5, -6.002e-5
0.267, 1.948e-5, -5.978e-5
0.268, 1.978e-5, -5.953e-5
0.269, 2.009e-5, -5.928e-5
0.270, 2.039e-5, -5.903e-5
0.271, 2.067e-5, -5.877e-5
0.272, 2.099e-5, -5.851e-5
0.273, 2.124e-5, -5.824e-5
0.274, 2.153e-5, -5.797e-5
0.275, 2.180e-5, -5.770e-5
0.276, 2.206e-5, -5.742e-5
0.277, 2.231e-5, -5.714e-5
0.278, 2.256e-5, -5.686e-5
0.279, 2.278e-5, -5.658e-5
0.280, 2.305e-5, -5.629e-5
0.281, 2.323e-5, -5.600e-5
0.282, 2.347e-5, -5.570e-5
0.283, 2.369e-5, -5.541e-5
0.284, 2.389e-5, -5.511e-5
0.285, 2.409e-5, -5.481e-5
0.286, 2.428e-5, -5.451e-5
0.287, 2.444e-5, -5.420e-5
0.288, 2.463e-5, -5.389e-5
0.289, 2.477e-5, -5.358e-5
0.290, 2.494e-5, -5.327e-5
0.291, 2.508e-5, -5.296e-5
0.292, 2.523e-5, -5.264e-5
0.293, 2.535e-5, -5.232e-5
0.294, 2.548e-5, -5.201e-5
0.295, 2.557e-5, -5.169e-5
0.296, 2.570e-5, -5.137e-5
0.297, 2.576e-5, -5.104e-5
0.298, 2.587e-5, -5.072e-5
0.299, 2.592e-5, -5.040e-5
0.300, 2.600e-5, -5.007e-5
0.301, 2.605e-5, -4.975e-5
0.302, 2.611e-5, -4.942e-5
0.303, 2.613e-5, -4.909e-5
0.304, 2.619e-5, -4.877e-5
0.305, 2.619e-5, -4.844e-5
0.306, 2.623e-5, -4.811e-5
0.307, 2.623e-5, -4.778e-5
0.308, 2.623e-5, -4.745e-5
0.309, 2.623e-5, -4.713e-5
0.310, 2.623e-5, -4.680e-5
0.311, 2.618e-5, -4.647e-5
0.312, 2.617e-5, -4.614e-5
0.313, 2.611e-5, -4.582e-5
0.314, 2.609e-5, -4.549e-5
0.315, 2.603e-5, -4.517e-5
0.316, 2.598e-5, -4.484e-5
0.317, 2.592e-5, -4.452e-5
0.318, 2.587e-5, -4.419e-5
0.319, 2.578e-5, -4.387e-5
0.320, 2.573e-5, -4.355e-5
0.321, 2.562e-5, -4.323e-5
0.322, 2.556e-5, -4.291e-5
0.323, 2.547e-5, -4.259e-5
0.324, 2.538e-5, -4.228e-5
0.325, 2.527e-5, -4.196e-5
0.326, 2.517e-5, -4.164e-5
0.327, 2.505e-5, -4.133e-5
0.328, 2.495e-5, -4.102e-5
0.329, 2.482e-5, -4.071e-5
0.330, 2.473e-5, -4.040e-5
0.331, 2.461e-5, -4.009e-5
0.332, 2.450e-5, -3.979e-5
0.333, 2.437e-5, -3.948e-5
0.334, 2.426e-5, -3.918e-5
0.335, 2.412e-5, -3.888e-5
0.336, 2.401e-5, -3.858e-5
0.337, 2.387e-5, -3.828e-5
0.338, 2.376e-5, -3.798e-5
0.339, 2.360e-5, -3.769e-5
0.340, 2.348e-5, -3.739e-5
0.341, 2.334e-5, -3.710e-5
0.342, 2.322e-5, -3.681e-5
0.343, 2.308e-5, -3.652e-5
0.344, 2.296e-5, -3.624e-5
0.345, 2.281e-5, -3.595e-5
0.346, 2.269e-5, -3.567e-5
0.347, 2.255e-5, -3.539e-5
0.348, 2.242e-5, -3.510e-5
0.349, 2.228e-5, -3.483e-5
0.350, 2.216e-5, -3.455e-5
0.351, 2.200e-5, -3.427e-5
0.352, 2.189e-5, -3.400e-5
0.353, 2.174e-5, -3.373e-5
0.354, 2.162e-5, -3.346e-5
0.355, 2.148e-5, -3.319e-5
0.356, 2.136e-5, -3.292e-5
0.357, 2.122e-5, -3.266e-5
0.358, 2.110e-5, -3.239e-5
0.359, 2.096e-5, -3.213e-5
0.360, 2.085e-5, -3.187e-5
0.361, 2.070e-5, -3.161e-5
0.362, 2.059e-5, -3.136e-5
0.363, 2.045e-5, -3.110e-5
0.364, 2.033e-5, -3.085e-5
0.365, 2.020e-5, -3.059e-5
0.366, 2.009e-5, -3.034e-5
0.367, 1.995e-5, -3.009e-5
0.368, 1.985e-5, -2.984e-5
0.369, 1.971e-5, -2.960e-5
0.370, 1.961e-5, -2.935e-5
0.371, 1.948e-5, -2.911e-5
0.372, 1.937e-5, -2.887e-5
0.373, 1.925e-5, -2.863e-5
0.374, 1.915e-5, -2.839e-5
0.375, 1.902e-5, -2.815e-5
0.376, 1.893e-5, -2.791e-5
0.377, 1.881e-5, -2.768e-5
0.378, 1.871e-5, -2.744e-5
0.379, 1.859e-5, -2.721e-5
0.380, 1.849e-5, -2.698e-5
0.381, 1.838e-5, -2.675e-5
0.382, 1.829e-5, -2.652e-5
0.383, 1.817e-5, -2.629e-5
0.384, 1.809e-5, -2.607e-5
0.385, 1.797e-5, -2.584e-5
0.386, 1.788e-5, -2.562e-5
0.387, 1.777e-5, -2.540e-5
0.388, 1.769e-5, -2.518e-5
0.389, 1.758e-5, -2.496e-5
0.390, 1.750e-5, -2.474e-5
0.391, 1.737e-5, -2.452e-5
0.392, 1.730e-5, -2.431e-5
0.393, 1.719e-5, -2.409e-5
0.394, 1.711e-5, -2.388e-5
0.395, 1.701e-5, -2.366e-5
0.396, 1.693e-5, -2.345e-5
0.397, 1.684e-5, -2.324e-5
0.398, 1.676e-5, -2.303e-5
0.399, 1.666e-5, -2.282e-5
0.400, 1.659e-5, -2.262e-5
0.401, 1.650e-5, -2.241e-5
0.402, 1.643e-5, -2.221e-5
0.403, 1.633e-5, -2.200e-5
0.404, 1.626e-5, -2.180e-5
0.405, 1.617e-5, -2.160e-5
0.406, 1.611e-5, -2.139e-5
0.407, 1.601e-5, -2.119e-5
0.408, 1.595e-5, -2.099e-5
0.409, 1.586e-5, -2.080e-5
0.410, 1.580e-5, -2.060e-5
0.411, 1.571e-5, -2.040e-5
0.412, 1.565e-5, -2.021e-5
0.413, 1.556e-5, -2.001e-5
0.414, 1.551e-5, -1.982e-5
0.415, 1.542e-5, -1.963e-5
0.416, 1.537e-5, -1.943e-5
0.417, 1.529e-5, -1.924e-5
0.418, 1.522e-5, -1.905e-5
0.419, 1.515e-5, -1.886e-5
0.420, 1.509e-5, -1.867e-5
0.421, 1.501e-5, -1.849e-5
0.422, 1.496e-5, -1.830e-5
0.423, 1.488e-5, -1.811e-5
0.424, 1.483e-5, -1.793e-5
0.425, 1.475e-5, -1.774e-5
0.426, 1.471e-5, -1.756e-5
0.427, 1.463e-5, -1.738e-5
0.428, 1.459e-5, -1.719e-5
0.429, 1.451e-5, -1.701e-5
0.430, 1.447e-5, -1.683e-5
0.431, 1.439e-5, -1.665e-5
0.432, 1.435e-5, -1.647e-5
0.433, 1.427e-5, -1.629e-5
0.434, 1.422e-5, -1.612e-5
0.435, 1.415e-5, -1.594e-5
0.436, 1.411e-5, -1.576e-5
0.437, 1.404e-5, -1.559e-5
0.438, 1.400e-5, -1.541e-5
0.439, 1.393e-5, -1.524e-5
0.440, 1.389e-5, -1.507e-5
0.441, 1.383e-5, -1.489e-5
0.442, 1.379e-5, -1.472e-5
0.443, 1.373e-5, -1.455e-5
0.444, 1.368e-5, -1.438e-5
0.445, 1.362e-5, -1.421e-5
0.446, 1.358e-5, -1.404e-5
0.447, 1.352e-5, -1.387e-5
0.448, 1.349e-5, -1.370e-5
0.449, 1.343e-5, -1.353e-5
0.450, 1.339e-5, -1.336e-5
0.451, 1.333e-5, -1.320e-5
0.452, 1.329e-5, -1.303e-5
0.453, 1.323e-5, -1.287e-5
0.454, 1.320e-5, -1.270e-5
0.455, 1.314e-5, -1.254e-5
0.456, 1.311e-5, -1.237e-5
0.457, 1.305e-5, -1.221e-5
0.458, 1.302e-5, -1.205e-5
0.459, 1.296e-5, -1.189e-5
0.460, 1.294e-5, -1.172e-5
0.461, 1.287e-5, -1.156e-5
0.462, 1.285e-5, -1.140e-5
0.463, 1.279e-5, -1.124e-5
0.464, 1.276e-5, -1.108e-5
0.465, 1.270e-5, -1.092e-5
0.466, 1.267e-5, -1.077e-5
0.467, 1.262e-5, -1.061e-5
0.468, 1.260e-5, -1.045e-5
0.469, 1.254e-5, -1.029e-5
0.470, 1.251e-5, -1.014e-5
0.471, 1.246e-5, -9.982e-6
0.472, 1.243e-5, -9.826e-6
0.473, 1.238e-5, -9.672e-6
0.474, 1.236e-5, -9.517e-6
0.475, 1.231e-5, -9.363e-6
0.476, 1.227e-5, -9.210e-6
0.477, 1.223e-5, -9.057e-6
0.478, 1.221e-5, -8.904e-6
0.479, 1.216e-5, -8.752e-6
0.480, 1.213e-5, -8.601e-6
0.481, 1.208e-5, -8.450e-6
0.482, 1.207e-5, -8.299e-6
0.483, 1.202e-5, -8.149e-6
0.484, 1.199e-5, -7.999e-6
0.485, 1.195e-5, -7.849e-6
0.486, 1.193e-5, -7.700e-6
0.487, 1.187e-5, -7.552e-6
0.488, 1.186e-5, -7.404e-6
0.489, 1.182e-5, -7.256e-6
0.490, 1.179e-5, -7.109e-6
0.491, 1.175e-5, -6.962e-6
0.492, 1.172e-5, -6.815e-6
0.493, 1.168e-5, -6.669e-6
0.494, 1.167e-5, -6.523e-6
0.495, 1.162e-5, -6.378e-6
0.496, 1.160e-5, -6.233e-6
0.497, 1.155e-5, -6.089e-6
0.498, 1.154e-5, -5.944e-6
0.499, 1.149e-5, -5.801e-6
0.500, 1.144e-5, -5.658e-6

Segment 3:
0.499, 1.125e-5, -5.517e-6
0.498, 1.118e-5, -5.377e-6
0.497, 1.109e-5, -5.239e-6
0.496, 1.106e-5, -5.101e-6
0.495, 1.099e-5, -4.963e-6
0.494, 1.095e-5, -4.826e-6
0.493, 1.090e-5, -4.690e-6
0.492, 1.086e-5, -4.554e-6
0.491, 1.081e-5, -4.419e-6
0.490, 1.079e-5, -4.284e-6
0.489, 1.073e-5, -4.150e-6
0.488, 1.071e-5, -4.016e-6
0.487, 1.065e-5, -3.883e-6
0.486, 1.063e-5, -3.750e-6
0.485, 1.059e-5, -3.618e-6
0.484, 1.055e-5, -3.486e-6
0.483, 1.051e-5, -3.355e-6
0.482, 1.049e-5, -3.224e-6
0.481, 1.043e-5, -3.093e-6
0.480, 1.041e-5, -2.963e-6
0.479, 1.036e-5, -2.833e-6
0.478, 1.035e-5, -2.704e-6
0.477, 1.030e-5, -2.575e-6
0.476, 1.028e-5, -2.447e-6
0.475, 1.023e-5, -2.319e-6
0.474, 1.021e-5, -2.191e-6
0.473, 1.016e-5, -2.064e-6
0.472, 1.015e-5, -1.937e-6
0.471, 1.011e-5, -1.811e-6
0.470, 1.008e-5, -1.685e-6
0.469, 1.004e-5, -1.559e-6
0.468, 1.002e-5, -1.434e-6
0.467, 9.974e-6, -1.309e-6
0.466, 9.966e-6, -1.185e-6
0.465, 9.918e-6, -1.061e-6
0.464, 9.909e-6, -9.371e-7
0.463, 9.864e-6, -8.138e-7
0.462, 9.842e-6, -6.907e-7
0.461, 9.809e-6, -5.681e-7
0.460, 9.780e-6, -4.459e-7
0.459, 9.741e-6, -3.241e-7
0.458, 9.727e-6, -2.025e-7
0.457, 9.678e-6, -8.156e-8
0.456, 9.673e-6, 3.935e-8
0.455, 9.626e-6, 1.597e-7
0.454, 9.617e-6, 2.799e-7
0.453, 9.572e-6, 3.995e-7
0.452, 9.550e-6, 5.189e-7
0.451, 9.514e-6, 6.378e-7
0.450, 9.501e-6, 7.566e-7
0.449, 9.451e-6, 8.747e-7
0.448, 9.443e-6, 9.928e-7
0.447, 9.397e-6, 1.110e-6
0.446, 9.381e-6, 1.227e-6
0.445, 9.341e-6, 1.344e-6
0.444, 9.331e-6, 1.461e-6
0.443, 9.288e-6, 1.577e-6
0.442, 9.279e-6, 1.693e-6
0.441, 9.235e-6, 1.808e-6
0.440, 9.229e-6, 1.924e-6
0.439, 9.185e-6, 2.039e-6
0.438, 9.166e-6, 2.153e-6
0.437, 9.135e-6, 2.267e-6
0.436, 9.118e-6, 2.381e-6
0.435, 9.079e-6, 2.495e-6
0.434, 9.063e-6, 2.608e-6
0.433, 9.028e-6, 2.721e-6
0.432, 9.009e-6, 2.834e-6
0.431, 8.967e-6, 2.946e-6
0.430, 8.951e-6, 3.058e-6
0.429, 8.917e-6, 3.169e-6
0.428, 8.899e-6, 3.280e-6
0.427, 8.859e-6, 3.391e-6
0.426, 8.849e-6, 3.502e-6
0.425, 8.801e-6, 3.612e-6
0.424, 8.797e-6, 3.722e-6
0.423, 8.750e-6, 3.831e-6
0.422, 8.744e-6, 3.940e-6
0.421, 8.700e-6, 4.049e-6
0.420, 8.690e-6, 4.158e-6
0.419, 8.648e-6, 4.266e-6
0.418, 8.637e-6, 4.374e-6
0.417, 8.592e-6, 4.481e-6
0.416, 8.579e-6, 4.588e-6
0.415, 8.538e-6, 4.695e-6
0.414, 8.521e-6, 4.802e-6
0.413, 8.480e-6, 4.908e-6
0.412, 8.460e-6, 5.013e-6
0.411, 8.417e-6, 5.119e-6
0.410, 8.407e-6, 5.224e-6
0.409, 8.360e-6, 5.328e-6
0.408, 8.356e-6, 5.433e-6
0.407, 8.307e-6, 5.536e-6
0.406, 8.294e-6, 5.640e-6
0.405, 8.256e-6, 5.743e-6
0.404, 8.228e-6, 5.846e-6
0.403, 8.188e-6, 5.949e-6
0.402, 8.168e-6, 6.051e-6
0.401, 8.118e-6, 6.152e-6
0.400, 8.112e-6, 6.253e-6
0.399, 8.060e-6, 6.354e-6
0.398, 8.041e-6, 6.455e-6
0.397, 7.985e-6, 6.555e-6
0.396, 7.966e-6, 6.654e-6
0.395, 7.919e-6, 6.753e-6
0.394, 7.904e-6, 6.852e-6
0.393, 7.854e-6, 6.950e-6
0.392, 7.831e-6, 7.048e-6
0.391, 7.776e-6, 7.145e-6
0.390, 7.761e-6, 7.242e-6
0.389, 7.717e-6, 7.339e-6
0.388, 7.681e-6, 7.435e-6
0.387, 7.633e-6, 7.530e-6
0.386, 7.612e-6, 7.625e-6
0.385, 7.558e-6, 7.720e-6
0.384, 7.535e-6, 7.814e-6
0.383, 7.479e-6, 7.907e-6
0.382, 7.456e-6, 8.001e-6
0.381, 7.398e-6, 8.093e-6
0.380, 7.371e-6, 8.185e-6
0.379, 7.315e-6, 8.277e-6
0.378, 7.283e-6, 8.368e-6
0.377, 7.222e-6, 8.458e-6
0.376, 7.192e-6, 8.548e-6
0.375, 7.133e-6, 8.637e-6
0.374, 7.100e-6, 8.726e-6
0.373, 7.037e-6, 8.814e-6
0.372, 6.996e-6, 8.901e-6
0.371, 6.936e-6, 8.988e-6
0.370, 6.896e-6, 9.074e-6
0.369, 6.826e-6, 9.159e-6
0.368, 6.794e-6, 9.244e-6
0.367, 6.713e-6, 9.328e-6
0.366, 6.680e-6, 9.412e-6
0.365, 6.603e-6, 9.494e-6
0.364, 6.555e-6, 9.576e-6
0.363, 6.487e-6, 9.657e-6
0.362, 6.443e-6, 9.738e-6
0.361, 6.361e-6, 9.817e-6
0.360, 6.317e-6, 9.896e-6
0.359, 6.222e-6, 9.974e-6
0.358, 6.172e-6, 1.005e-5
0.357, 6.089e-6, 1.013e-5
0.356, 6.025e-6, 1.020e-5
0.355, 5.944e-6, 1.028e-5
0.354, 5.875e-6, 1.035e-5
0.353, 5.784e-6, 1.042e-5
0.352, 5.724e-6, 1.049e-5
0.351, 5.619e-6, 1.056e-5
0.350, 5.555e-6, 1.063e-5
0.349, 5.455e-6, 1.070e-5
0.348, 5.375e-6, 1.077e-5
0.347, 5.274e-6, 1.084e-5
0.346, 5.195e-6, 1.090e-5
0.345, 5.084e-6, 1.096e-5
0.344, 5.007e-6, 1.103e-5
0.343, 4.869e-6, 1.109e-5
0.342, 4.785e-6, 1.115e-5
0.341, 4.663e-6, 1.121e-5
0.340, 4.562e-6, 1.126e-5
0.339, 4.441e-6, 1.132e-5
0.338, 4.336e-6, 1.137e-5
0.337, 4.204e-6, 1.142e-5
0.336, 4.106e-6, 1.148e-5
0.335, 3.957e-6, 1.153e-5
0.334, 3.850e-6, 1.157e-5
0.333, 3.699e-6, 1.162e-5
0.332, 3.576e-6, 1.166e-5
0.331, 3.433e-6, 1.171e-5
0.330, 3.301e-6, 1.175e-5
0.329, 3.140e-6, 1.179e-5
0.328, 3.010e-6, 1.183e-5
0.327, 2.832e-6, 1.186e-5
0.326, 2.697e-6, 1.189e-5
0.325, 2.520e-6, 1.193e-5
0.324, 2.368e-6, 1.196e-5
0.323, 2.198e-6, 1.198e-5
0.322, 2.033e-6, 1.201e-5
0.321, 1.843e-6, 1.203e-5
0.320, 1.672e-6, 1.205e-5
0.319, 1.460e-6, 1.207e-5
0.318, 1.299e-6, 1.209e-5
0.317, 1.088e-6, 1.210e-5
0.316, 9.020e-7, 1.211e-5
0.315, 6.961e-7, 1.212e-5
0.314, 4.974e-7, 1.213e-5
0.313, 2.718e-7, 1.213e-5
0.312, 6.777e-8, 1.213e-5
0.311, -1.807e-7, 1.213e-5
0.310, -3.869e-7, 1.212e-5
0.309, -6.256e-7, 1.212e-5
0.308, -8.598e-7, 1.211e-5
0.307, -1.097e-6, 1.209e-5
0.306, -1.356e-6, 1.207e-5
0.305, -1.597e-6, 1.205e-5
0.304, -1.841e-6, 1.203e-5
0.303, -2.112e-6, 1.201e-5
0.302, -2.347e-6, 1.198e-5
0.301, -2.631e-6, 1.194e-5
0.300, -2.894e-6, 1.191e-5
0.299, -3.164e-6, 1.187e-5
0.298, -3.448e-6, 1.182e-5
0.297, -3.733e-6, 1.178e-5
0.296, -3.999e-6, 1.173e-5
0.295, -4.310e-6, 1.167e-5
0.294, -4.593e-6, 1.162e-5
0.293, -4.906e-6, 1.156e-5
0.292, -5.193e-6, 1.149e-5
0.291, -5.491e-6, 1.142e-5
0.290, -5.807e-6, 1.135e-5
0.289, -6.116e-6, 1.127e-5
0.288, -6.419e-6, 1.119e-5
0.287, -6.762e-6, 1.111e-5
0.286, -7.055e-6, 1.102e-5
0.285, -7.399e-6, 1.093e-5
0.284, -7.726e-6, 1.083e-5
0.283, -8.046e-6, 1.073e-5
0.282, -8.386e-6, 1.062e-5
0.281, -8.723e-6, 1.052e-5
0.280, -9.041e-6, 1.040e-5
0.279, -9.409e-6, 1.029e-5
0.278, -9.724e-6, 1.016e-5
0.277, -1.008e-5, 1.004e-5
0.276, -1.041e-5, 9.908e-6
0.275, -1.076e-5, 9.773e-6
0.274, -1.111e-5, 9.634e-6
0.273, -1.146e-5, 9.491e-6
0.272, -1.179e-5, 9.344e-6
0.271, -1.218e-5, 9.191e-6
0.270, -1.249e-5, 9.035e-6
0.269, -1.285e-5, 8.875e-6
0.268, -1.320e-5, 8.710e-6
0.267, -1.354e-5, 8.540e-6
0.266, -1.389e-5, 8.367e-6
0.265, -1.423e-5, 8.189e-6
0.264, -1.455e-5, 8.007e-6
0.263, -1.491e-5, 7.821e-6
0.262, -1.523e-5, 7.630e-6
0.261, -1.559e-5, 7.435e-6
0.260, -1.591e-5, 7.236e-6
0.259, -1.623e-5, 7.033e-6
0.258, -1.656e-5, 6.826e-6
0.257, -1.689e-5, 6.615e-6
0.256, -1.720e-5, 6.400e-6
0.255, -1.755e-5, 6.181e-6
0.254, -1.782e-5, 5.958e-6
0.253, -1.815e-5, 5.731e-6
0.252, -1.843e-5, 5.501e-6
0.251, -1.872e-5, 5.267e-6
0.250, -1.901e-5, 5.029e-6
0.249, -1.930e-5, 4.788e-6
0.248, -1.956e-5, 4.543e-6
0.247, -1.987e-5, 4.295e-6
0.246, -2.011e-5, 4.044e-6
0.245, -2.039e-5, 3.789e-6
0.244, -2.064e-5, 3.531e-6
0.243, -2.087e-5, 3.270e-6
0.242, -2.113e-5, 3.006e-6
0.241, -2.136e-5, 2.739e-6
0.240, -2.156e-5, 2.469e-6
0.239, -2.182e-5, 2.197e-6
0.238, -2.199e-5, 1.922e-6
0.237, -2.221e-5, 1.644e-6
0.236, -2.240e-5, 1.364e-6
0.235, -2.257e-5, 1.082e-6
0.234, -2.276e-5, 7.976e-7
0.233, -2.293e-5, 5.109e-7
0.232, -2.307e-5, 2.225e-7
0.231, -2.326e-5, -6.826e-8
0.230, -2.338e-5, -3.605e-7
0.229, -2.354e-5, -6.547e-7
0.228, -2.366e-5, -9.504e-7
0.227, -2.378e-5, -1.248e-6
0.226, -2.389e-5, -1.546e-6
0.225, -2.399e-5, -1.846e-6
0.224, -2.407e-5, -2.147e-6
0.223, -2.418e-5, -2.449e-6
0.222, -2.423e-5, -2.752e-6
0.221, -2.431e-5, -3.056e-6
0.220, -2.437e-5, -3.361e-6
0.219, -2.441e-5, -3.666e-6
0.218, -2.446e-5, -3.972e-6
0.217, -2.450e-5, -4.278e-6
0.216, -2.451e-5, -4.584e-6
0.215, -2.456e-5, -4.891e-6
0.214, -2.454e-5, -5.198e-6
0.213, -2.456e-5, -5.505e-6
0.212, -2.455e-5, -5.812e-6
0.211, -2.455e-5, -6.119e-6
0.210, -2.453e-5, -6.425e-6
0.209, -2.451e-5, -6.732e-6
0.208, -2.447e-5, -7.038e-6
0.207, -2.446e-5, -7.344e-6
0.206, -2.440e-5, -7.649e-6
0.205, -2.437e-5, -7.953e-6
0.204, -2.429e-5, -8.257e-6
0.203, -2.424e-5, -8.560e-6
0.202, -2.417e-5, -8.862e-6
0.201, -2.411e-5, -9.163e-6
0.200, -2.403e-5, -9.464e-6
0.199, -2.397e-5, -9.763e-6
0.198, -2.387e-5, -1.006e-5
0.197, -2.380e-5, -1.036e-5
0.196, -2.370e-5, -1.066e-5
0.195, -2.361e-5, -1.095e-5
0.194, -2.352e-5, -1.124e-5
0.193, -2.342e-5, -1.154e-5
0.192, -2.331e-5, -1.183e-5
0.191, -2.321e-5, -1.212e-5
0.190, -2.307e-5, -1.241e-5
0.189, -2.298e-5, -1.269e-5
0.188, -2.286e-5, -1.298e-5
0.187, -2.275e-5, -1.326e-5
0.186, -2.263e-5, -1.355e-5
0.185, -2.252e-5, -1.383e-5
0.184, -2.239e-5, -1.411e-5
0.183, -2.228e-5, -1.439e-5
0.182, -2.214e-5, -1.466e-5
0.181, -2.203e-5, -1.494e-5
0.180, -2.190e-5, -1.521e-5
0.179, -2.178e-5, -1.549e-5
0.178, -2.164e-5, -1.576e-5
0.177, -2.152e-5, -1.603e-5
0.176, -2.138e-5, -1.629e-5
0.175, -2.128e-5, -1.656e-5
0.174, -2.113e-5, -1.682e-5
0.173, -2.102e-5, -1.709e-5
0.172, -2.088e-5, -1.735e-5
0.171, -2.076e-5, -1.761e-5
0.170, -2.063e-5, -1.786e-5
0.169, -2.051e-5, -1.812e-5
0.168, -2.037e-5, -1.837e-5
0.167, -2.026e-5, -1.863e-5
0.166, -2.012e-5, -1.888e-5
0.165, -2.000e-5, -1.913e-5
0.164, -1.986e-5, -1.938e-5
0.163, -1.974e-5, -1.962e-5
0.162, -1.961e-5, -1.987e-5
0.161, -1.950e-5, -2.011e-5
0.160, -1.937e-5, -2.036e-5
0.159, -1.926e-5, -2.060e-5
0.158, -1.913e-5, -2.084e-5
0.157, -1.902e-5, -2.107e-5
0.156, -1.889e-5, -2.131e-5
0.155, -1.878e-5, -2.154e-5
0.154, -1.865e-5, -2.178e-5
0.153, -1.856e-5, -2.201e-5
0.152, -1.843e-5, -2.224e-5
0.151, -1.833e-5, -2.247e-5
0.150, -1.820e-5, -2.270e-5
0.149, -1.811e-5, -2.292e-5
0.148, -1.799e-5, -2.315e-5
0.147, -1.788e-5, -2.337e-5
0.146, -1.777e-5, -2.359e-5
0.145, -1.767e-5, -2.381e-5
0.144, -1.755e-5, -2.403e-5
0.143, -1.746e-5, -2.425e-5
0.142, -1.735e-5, -2.447e-5
0.141, -1.726e-5, -2.468e-5
0.140, -1.715e-5, -2.490e-5
0.139, -1.705e-5, -2.511e-5
0.138, -1.694e-5, -2.532e-5
0.137, -1.685e-5, -2.553e-5
0.136, -1.674e-5, -2.574e-5
0.135, -1.666e-5, -2.595e-5
0.134, -1.655e-5, -2.616e-5
0.133, -1.647e-5, -2.636e-5
0.132, -1.637e-5, -2.657e-5
0.131, -1.628e-5, -2.677e-5
0.130, -1.619e-5, -2.697e-5
0.129, -1.611e-5, -2.718e-5
0.128, -1.601e-5, -2.738e-5
0.127, -1.593e-5, -2.758e-5
0.126, -1.584e-5, -2.777e-5
0.125, -1.576e-5, -2.797e-5
0.124, -1.567e-5, -2.817e-5
0.123, -1.559e-5, -2.836e-5
0.122, -1.550e-5, -2.855e-5
0.121, -1.543e-5, -2.875e-5
0.120, -1.533e-5, -2.894e-5
0.119, -1.527e-5, -2.913e-5
0.118, -1.518e-5, -2.932e-5
0.117, -1.511e-5, -2.951e-5
0.116, -1.503e-5, -2.970e-5
0.115, -1.496e-5, -2.988e-5
0.114, -1.488e-5, -3.007e-5
0.113, -1.482e-5, -3.025e-5
0.112, -1.473e-5, -3.044e-5
0.111, -1.467e-5, -3.062e-5
0.110, -1.459e-5, -3.080e-5
0.109, -1.453e-5, -3.099e-5
0.108, -1.445e-5, -3.117e-5
0.107, -1.439e-5, -3.135e-5
0.106, -1.432e-5, -3.153e-5
0.105, -1.426e-5, -3.170e-5
0.104, -1.418e-5, -3.188e-5
0.103, -1.413e-5, -3.206e-5
0.102, -1.406e-5, -3.223e-5
0.101, -1.400e-5, -3.241e-5
0.100, -1.393e-5, -3.258e-5
0.099, -1.387e-5, -3.276e-5
0.098, -1.379e-5, -3.293e-5
0.097, -1.374e-5, -3.310e-5
0.096, -1.367e-5, -3.327e-5
0.095, -1.362e-5, -3.344e-5
0.094, -1.355e-5, -3.361e-5
0.093, -1.350e-5, -3.378e-5
0.092, -1.344e-5, -3.395e-5
0.091, -1.338e-5, -3.411e-5
0.090, -1.332e-5, -3.428e-5
0.089, -1.327e-5, -3.445e-5
0.088, -1.321e-5, -3.461e-5
0.087, -1.317e-5, -3.478e-5
0.086, -1.310e-5, -3.494e-5
0.085, -1.306e-5, -3.510e-5
0.084, -1.300e-5, -3.527e-5
0.083, -1.295e-5, -3.543e-5
0.082, -1.290e-5, -3.559e-5
0.081, -1.285e-5, -3.575e-5
0.080, -1.279e-5, -3.591e-5
0.079, -1.275e-5, -3.607e-5
0.078, -1.269e-5, -3.623e-5
0.077, -1.265e-5, -3.639e-5
0.076, -1.260e-5, -3.654e-5
0.075, -1.255e-5, -3.670e-5
0.074, -1.250e-5, -3.686e-5
0.073, -1.246e-5, -3.701e-5
0.072, -1.240e-5, -3.717e-5
0.071, -1.237e-5, -3.732e-5
0.070, -1.231e-5, -3.748e-5
0.069, -1.228e-5, -3.763e-5
0.068, -1.222e-5, -3.778e-5
0.067, -1.219e-5, -3.793e-5
0.066, -1.213e-5, -3.809e-5
0.065, -1.210e-5, -3.824e-5
0.064, -1.204e-5, -3.839e-5
0.063, -1.201e-5, -3.854e-5
0.062, -1.196e-5, -3.869e-5
0.061, -1.193e-5, -3.884e-5
0.060, -1.188e-5, -3.899e-5
0.059, -1.185e-5, -3.913e-5
0.058, -1.180e-5, -3.928e-5
0.057, -1.177e-5, -3.943e-5
0.056, -1.172e-5, -3.957e-5
0.055, -1.170e-5, -3.972e-5
0.054, -1.164e-5, -3.987e-5
0.053, -1.161e-5, -4.001e-5
0.052, -1.157e-5, -4.016e-5
0.051, -1.154e-5, -4.030e-5
0.050, -1.149e-5, -4.044e-5
0.049, -1.147e-5, -4.059e-5
0.048, -1.142e-5, -4.073e-5
0.047, -1.139e-5, -4.087e-5
0.046, -1.135e-5, -4.101e-5
0.045, -1.132e-5, -4.116e-5
0.044, -1.127e-5, -4.130e-5
0.043, -1.125e-5, -4.144e-5
0.042, -1.121e-5, -4.158e-5
0.041, -1.118e-5, -4.172e-5
0.040, -1.113e-5, -4.186e-5
0.039, -1.112e-5, -4.199e-5
0.038, -1.107e-5, -4.213e-5
0.037, -1.104e-5, -4.227e-5
0.036, -1.101e-5, -4.241e-5
0.035, -1.098e-5, -4.255e-5
0.034, -1.094e-5, -4.268e-5
0.033, -1.093e-5, -4.282e-5
0.032, -1.087e-5, -4.296e-5
0.031, -1.086e-5, -4.309e-5
0.030, -1.081e-5, -4.323e-5
0.029, -1.079e-5, -4.336e-5
0.028, -1.075e-5, -4.350e-5
0.027, -1.073e-5, -4.363e-5
0.026, -1.068e-5, -4.376e-5
0.025, -1.066e-5, -4.390e-5
0.024, -1.062e-5, -4.403e-5
0.023, -1.060e-5, -4.416e-5
0.022, -1.056e-5, -4.429e-5
0.021, -1.054e-5, -4.443e-5
0.020, -1.050e-5, -4.456e-5
0.019, -1.049e-5, -4.469e-5
0.018, -1.044e-5, -4.482e-5
0.017, -1.044e-5, -4.495e-5
0.016, -1.039e-5, -4.508e-5
0.015, -1.038e-5, -4.521e-5
0.014, -1.034e-5, -4.534e-5
0.013, -1.032e-5, -4.547e-5
0.012, -1.029e-5, -4.560e-5
0.011, -1.026e-5, -4.572e-5
0.010, -1.023e-5, -4.585e-5
0.009, -1.021e-5, -4.598e-5
0.008, -1.017e-5, -4.611e-5
0.007, -1.016e-5, -4.623e-5
0.006, -1.013e-5, -4.636e-5
0.005, -1.011e-5, -4.649e-5
0.004, -1.007e-5, -4.661e-5
0.003, -1.005e-5, -4.674e-5
0.002, -1.003e-5, -4.686e-5
0.001, -1.001e-5, -4.699e-5
0.000, -9.975e-6, -4.711e-5
-0.001, -9.961e-6, -4.724e-5
-0.002, -9.930e-6, -4.736e-5
-0.003, -9.910e-6, -4.749e-5
-0.004, -9.881e-6, -4.761e-5
-0.005, -9.860e-6, -4.773e-5
-0.006, -9.837e-6, -4.786e-5
-0.007, -9.816e-6, -4.798e-5
-0.008, -9.788e-6, -4.810e-5
-0.009, -9.773e-6, -4.822e-5
-0.010, -9.748e-6, -4.834e-5
-0.011, -9.726e-6, -4.847e-5
-0.012, -9.701e-6, -4.859e-5
-0.013, -9.683e-6, -4.871e-5
-0.014, -9.655e-6, -4.883e-5
-0.015, -9.645e-6, -4.895e-5
-0.016, -9.609e-6, -4.907e-5
-0.017, -9.605e-6, -4.919e-5
-0.018, -9.565e-6, -4.931e-5
-0.019, -9.559e-6, -4.943e-5
-0.020, -9.524e-6, -4.955e-5
-0.021, -9.513e-6, -4.967e-5
-0.022, -9.480e-6, -4.979e-5
-0.023, -9.467e-6, -4.990e-5
-0.024, -9.441e-6, -5.002e-5
-0.025, -9.427e-6, -5.014e-5
-0.026, -9.406e-6, -5.026e-5
-0.027, -9.388e-6, -5.037e-5
-0.028, -9.367e-6, -5.049e-5
-0.029, -9.355e-6, -5.061e-5
-0.030, -9.318e-6, -5.072e-5
-0.031, -9.316e-6, -5.084e-5
-0.032, -9.273e-6, -5.096e-5
-0.033, -9.271e-6, -5.107e-5
-0.034, -9.236e-6, -5.119e-5
-0.035, -9.228e-6, -5.130e-5
-0.036, -9.209e-6, -5.142e-5
-0.037, -9.194e-6, -5.153e-5
-0.038, -9.169e-6, -5.165e-5
-0.039, -9.167e-6, -5.176e-5
-0.040, -9.123e-6, -5.188e-5
-0.041, -9.123e-6, -5.199e-5
-0.042, -9.081e-6, -5.210e-5
-0.043, -9.078e-6, -5.222e-5
-0.044, -9.059e-6, -5.233e-5
-0.045, -9.042e-6, -5.244e-5
-0.046, -9.020e-6, -5.256e-5
-0.047, -9.018e-6, -5.267e-5
-0.048, -8.979e-6, -5.278e-5
-0.049, -8.977e-6, -5.289e-5
-0.050, -8.911e-6, -5.301e-5

Segment 4:
-0.049, -8.804e-6, -5.312e-5
-0.048, -8.746e-6, -5.323e-5
-0.047, -8.724e-6, -5.333e-5
-0.046, -8.683e-6, -5.344e-5
-0.045, -8.669e-6, -5.355e-5
-0.044, -8.627e-6, -5.366e-5
-0.043, -8.617e-6, -5.377e-5
-0.042, -8.582e-6, -5.387e-5
-0.041, -8.565e-6, -5.398e-5
-0.040, -8.531e-6, -5.409e-5
-0.039, -8.516e-6, -5.419e-5
-0.038, -8.485e-6, -5.430e-5
-0.037, -8.478e-6, -5.441e-5
-0.036, -8.438e-6, -5.451e-5
-0.035, -8.436e-6, -5.462e-5
-0.034, -8.394e-6, -5.472e-5
-0.033, -8.389e-6, -5.483e-5
-0.032, -8.353e-6, -5.493e-5
-0.031, -8.343e-6, -5.504e-5
-0.030, -8.312e-6, -5.514e-5
-0.029, -8.299e-6, -5.524e-5
-0.028, -8.276e-6, -5.535e-5
-0.027, -8.266e-6, -5.545e-5
-0.026, -8.238e-6, -5.555e-5
-0.025, -8.228e-6, -5.566e-5
-0.024, -8.197e-6, -5.576e-5
-0.023, -8.191e-6, -5.586e-5
-0.022, -8.157e-6, -5.596e-5
-0.021, -8.148e-6, -5.606e-5
-0.020, -8.117e-6, -5.617e-5
-0.019, -8.110e-6, -5.627e-5
-0.018, -8.089e-6, -5.637e-5
-0.017, -8.078e-6, -5.647e-5
-0.016, -8.050e-6, -5.657e-5
-0.015, -8.045e-6, -5.667e-5
-0.014, -8.012e-6, -5.677e-5
-0.013, -8.002e-6, -5.687e-5
-0.012, -7.981e-6, -5.697e-5
-0.011, -7.974e-6, -5.707e-5
-0.010, -7.946e-6, -5.717e-5
-0.009, -7.939e-6, -5.727e-5
-0.008, -7.908e-6, -5.737e-5
-0.007, -7.902e-6, -5.747e-5
-0.006, -7.879e-6, -5.756e-5
-0.005, -7.863e-6, -5.766e-5
-0.004, -7.846e-6, -5.776e-5
-0.003, -7.842e-6, -5.786e-5
-0.002, -7.808e-6, -5.796e-5
-0.001, -7.804e-6, -5.805e-5
-0.000, -7.777e-6, -5.815e-5
0.001, -7.764e-6, -5.825e-5
0.002, -7.745e-6, -5.835e-5
0.003, -7.744e-6, -5.844e-5
0.004, -7.708e-6, -5.854e-5
0.005, -7.708e-6, -5.863e-5
0.006, -7.676e-6, -5.873e-5
0.007, -7.670e-6, -5.883e-5
0.008, -7.653e-6, -5.892e-5
0.009, -7.648e-6, -5.902e-5
0.010, -7.615e-6, -5.911e-5
0.011, -7.611e-6, -5.921e-5
0.012, -7.586e-6, -5.930e-5
0.013, -7.585e-6, -5.940e-5
0.014, -7.541e-6, -5.949e-5
0.015, -7.543e-6, -5.959e-5
0.016, -7.513e-6, -5.968e-5
0.017, -7.511e-6, -5.977e-5
0.018, -7.484e-6, -5.987e-5
0.019, -7.475e-6, -5.996e-5
0.020, -7.454e-6, -6.005e-5
0.021, -7.458e-6, -6.015e-5
0.022, -7.419e-6, -6.024e-5
0.023, -7.417e-6, -6.033e-5
0.024, -7.405e-6, -6.043e-5
0.025, -7.388e-6, -6.052e-5
0.026, -7.366e-6, -6.061e-5
0.027, -7.365e-6, -6.070e-5
0.028, -7.332e-6, -6.079e-5
0.029, -7.334e-6, -6.089e-5
