Mar. 30, 2023   16:23:05
Cyclic Voltammetry
File: 05mmol40mvs
Data Source:  Experiment
Instrument Model:  CHI600B
Header: 
Note: 

Init E (V) = 0.268
High E (V) = 0.5
Low E (V) = -0.05
Init P/N = N
Scan Rate (V/s) = 0.04
Segment = 4
Sample Interval (V) = 0.001
Quiet Time (sec) = 2
Sensitivity (A/V) = 1e-5

Segment 1:

Segment 2:
Ep = 0.304V
ip = 2.204e-5A
Ah = 3.875e-5C

Segment 3:
Ep = 0.217V
ip = -2.058e-5A
Ah = -3.582e-5C

Segment 4:

Potential/V, Current/A, Charge/C

Segment 1:
0.267, 1.030e-6, 2.575e-8
0.266, 3.732e-8, 2.669e-8
0.265, -7.823e-7, 7.130e-9
0.264, -1.504e-6, -3.046e-8
0.263, -2.153e-6, -8.429e-8
0.262, -2.753e-6, -1.531e-7
0.261, -3.310e-6, -2.359e-7
0.260, -3.818e-6, -3.313e-7
0.259, -4.320e-6, -4.393e-7
0.258, -4.799e-6, -5.593e-7
0.257, -5.248e-6, -6.905e-7
0.256, -5.672e-6, -8.323e-7
0.255, -6.082e-6, -9.843e-7
0.254, -6.473e-6, -1.146e-6
0.253, -6.853e-6, -1.317e-6
0.252, -7.215e-6, -1.498e-6
0.251, -7.570e-6, -1.687e-6
0.250, -7.911e-6, -1.885e-6
0.249, -8.246e-6, -2.091e-6
0.248, -8.555e-6, -2.305e-6
0.247, -8.848e-6, -2.526e-6
0.246, -9.150e-6, -2.755e-6
0.245, -9.445e-6, -2.991e-6
0.244, -9.712e-6, -3.234e-6
0.243, -9.974e-6, -3.483e-6
0.242, -1.023e-5, -3.739e-6
0.241, -1.047e-5, -4.001e-6
0.240, -1.071e-5, -4.268e-6
0.239, -1.094e-5, -4.542e-6
0.238, -1.115e-5, -4.820e-6
0.237, -1.136e-5, -5.104e-6
0.236, -1.156e-5, -5.393e-6
0.235, -1.174e-5, -5.687e-6
0.234, -1.192e-5, -5.985e-6
0.233, -1.209e-5, -6.287e-6
0.232, -1.225e-5, -6.593e-6
0.231, -1.240e-5, -6.903e-6
0.230, -1.256e-5, -7.217e-6
0.229, -1.269e-5, -7.535e-6
0.228, -1.281e-5, -7.855e-6
0.227, -1.294e-5, -8.178e-6
0.226, -1.305e-5, -8.505e-6
0.225, -1.315e-5, -8.833e-6
0.224, -1.325e-5, -9.165e-6
0.223, -1.334e-5, -9.498e-6
0.222, -1.342e-5, -9.834e-6
0.221, -1.349e-5, -1.017e-5
0.220, -1.356e-5, -1.051e-5
0.219, -1.362e-5, -1.085e-5
0.218, -1.367e-5, -1.119e-5
0.217, -1.372e-5, -1.154e-5
0.216, -1.376e-5, -1.188e-5
0.215, -1.379e-5, -1.222e-5
0.214, -1.383e-5, -1.257e-5
0.213, -1.386e-5, -1.292e-5
0.212, -1.387e-5, -1.326e-5
0.211, -1.389e-5, -1.361e-5
0.210, -1.390e-5, -1.396e-5
0.209, -1.390e-5, -1.430e-5
0.208, -1.388e-5, -1.465e-5
0.207, -1.388e-5, -1.500e-5
0.206, -1.386e-5, -1.535e-5
0.205, -1.385e-5, -1.569e-5
0.204, -1.380e-5, -1.604e-5
0.203, -1.378e-5, -1.638e-5
0.202, -1.376e-5, -1.673e-5
0.201, -1.372e-5, -1.707e-5
0.200, -1.368e-5, -1.741e-5
0.199, -1.366e-5, -1.775e-5
0.198, -1.361e-5, -1.809e-5
0.197, -1.357e-5, -1.843e-5
0.196, -1.352e-5, -1.877e-5
0.195, -1.347e-5, -1.911e-5
0.194, -1.342e-5, -1.944e-5
0.193, -1.337e-5, -1.978e-5
0.192, -1.332e-5, -2.011e-5
0.191, -1.327e-5, -2.044e-5
0.190, -1.320e-5, -2.077e-5
0.189, -1.314e-5, -2.110e-5
0.188, -1.308e-5, -2.143e-5
0.187, -1.302e-5, -2.175e-5
0.186, -1.295e-5, -2.208e-5
0.185, -1.289e-5, -2.240e-5
0.184, -1.282e-5, -2.272e-5
0.183, -1.275e-5, -2.304e-5
0.182, -1.269e-5, -2.335e-5
0.181, -1.262e-5, -2.367e-5
0.180, -1.255e-5, -2.398e-5
0.179, -1.248e-5, -2.429e-5
0.178, -1.241e-5, -2.461e-5
0.177, -1.233e-5, -2.491e-5
0.176, -1.227e-5, -2.522e-5
0.175, -1.220e-5, -2.552e-5
0.174, -1.212e-5, -2.583e-5
0.173, -1.205e-5, -2.613e-5
0.172, -1.198e-5, -2.643e-5
0.171, -1.191e-5, -2.673e-5
0.170, -1.184e-5, -2.702e-5
0.169, -1.177e-5, -2.732e-5
0.168, -1.170e-5, -2.761e-5
0.167, -1.163e-5, -2.790e-5
0.166, -1.156e-5, -2.819e-5
0.165, -1.149e-5, -2.848e-5
0.164, -1.142e-5, -2.876e-5
0.163, -1.136e-5, -2.905e-5
0.162, -1.129e-5, -2.933e-5
0.161, -1.122e-5, -2.961e-5
0.160, -1.116e-5, -2.989e-5
0.159, -1.109e-5, -3.017e-5
0.158, -1.103e-5, -3.044e-5
0.157, -1.096e-5, -3.071e-5
0.156, -1.089e-5, -3.099e-5
0.155, -1.083e-5, -3.126e-5
0.154, -1.077e-5, -3.153e-5
0.153, -1.070e-5, -3.179e-5
0.152, -1.063e-5, -3.206e-5
0.151, -1.057e-5, -3.232e-5
0.150, -1.051e-5, -3.259e-5
0.149, -1.045e-5, -3.285e-5
0.148, -1.039e-5, -3.311e-5
0.147, -1.033e-5, -3.337e-5
0.146, -1.027e-5, -3.362e-5
0.145, -1.021e-5, -3.388e-5
0.144, -1.016e-5, -3.413e-5
0.143, -1.010e-5, -3.438e-5
0.142, -1.005e-5, -3.464e-5
0.141, -9.992e-6, -3.489e-5
0.140, -9.939e-6, -3.513e-5
0.139, -9.880e-6, -3.538e-5
0.138, -9.829e-6, -3.563e-5
0.137, -9.775e-6, -3.587e-5
0.136, -9.724e-6, -3.611e-5
0.135, -9.670e-6, -3.636e-5
0.134, -9.621e-6, -3.660e-5
0.133, -9.573e-6, -3.684e-5
0.132, -9.522e-6, -3.707e-5
0.131, -9.473e-6, -3.731e-5
0.130, -9.426e-6, -3.755e-5
0.129, -9.379e-6, -3.778e-5
0.128, -9.333e-6, -3.801e-5
0.127, -9.282e-6, -3.825e-5
0.126, -9.237e-6, -3.848e-5
0.125, -9.196e-6, -3.871e-5
0.124, -9.154e-6, -3.894e-5
0.123, -9.103e-6, -3.916e-5
0.122, -9.065e-6, -3.939e-5
0.121, -9.022e-6, -3.962e-5
0.120, -8.977e-6, -3.984e-5
0.119, -8.931e-6, -4.006e-5
0.118, -8.887e-6, -4.029e-5
0.117, -8.852e-6, -4.051e-5
0.116, -8.815e-6, -4.073e-5
0.115, -8.778e-6, -4.095e-5
0.114, -8.734e-6, -4.117e-5
0.113, -8.690e-6, -4.138e-5
0.112, -8.658e-6, -4.160e-5
0.111, -8.624e-6, -4.181e-5
0.110, -8.586e-6, -4.203e-5
0.109, -8.544e-6, -4.224e-5
0.108, -8.505e-6, -4.246e-5
0.107, -8.479e-6, -4.267e-5
0.106, -8.439e-6, -4.288e-5
0.105, -8.400e-6, -4.309e-5
0.104, -8.373e-6, -4.330e-5
0.103, -8.338e-6, -4.351e-5
0.102, -8.298e-6, -4.371e-5
0.101, -8.271e-6, -4.392e-5
0.100, -8.241e-6, -4.413e-5
0.099, -8.201e-6, -4.433e-5
0.098, -8.176e-6, -4.454e-5
0.097, -8.143e-6, -4.474e-5
0.096, -8.105e-6, -4.494e-5
0.095, -8.083e-6, -4.514e-5
0.094, -8.049e-6, -4.535e-5
0.093, -8.016e-6, -4.555e-5
0.092, -7.996e-6, -4.575e-5
0.091, -7.957e-6, -4.594e-5
0.090, -7.932e-6, -4.614e-5
0.089, -7.903e-6, -4.634e-5
0.088, -7.874e-6, -4.654e-5
0.087, -7.850e-6, -4.673e-5
0.086, -7.816e-6, -4.693e-5
0.085, -7.799e-6, -4.712e-5
0.084, -7.761e-6, -4.732e-5
0.083, -7.738e-6, -4.751e-5
0.082, -7.708e-6, -4.770e-5
0.081, -7.685e-6, -4.790e-5
0.080, -7.659e-6, -4.809e-5
0.079, -7.634e-6, -4.828e-5
0.078, -7.610e-6, -4.847e-5
0.077, -7.583e-6, -4.866e-5
0.076, -7.549e-6, -4.885e-5
0.075, -7.516e-6, -4.904e-5
0.074, -7.503e-6, -4.922e-5
0.073, -7.470e-6, -4.941e-5
0.072, -7.454e-6, -4.960e-5
0.071, -7.422e-6, -4.978e-5
0.070, -7.410e-6, -4.997e-5
0.069, -7.379e-6, -5.015e-5
0.068, -7.360e-6, -5.034e-5
0.067, -7.332e-6, -5.052e-5
0.066, -7.316e-6, -5.070e-5
0.065, -7.293e-6, -5.088e-5
0.064, -7.269e-6, -5.107e-5
0.063, -7.252e-6, -5.125e-5
0.062, -7.223e-6, -5.143e-5
0.061, -7.215e-6, -5.161e-5
0.060, -7.188e-6, -5.179e-5
0.059, -7.168e-6, -5.197e-5
0.058, -7.145e-6, -5.215e-5
0.057, -7.123e-6, -5.232e-5
0.056, -7.111e-6, -5.250e-5
0.055, -7.083e-6, -5.268e-5
0.054, -7.070e-6, -5.285e-5
0.053, -7.047e-6, -5.303e-5
0.052, -7.026e-6, -5.321e-5
0.051, -7.019e-6, -5.338e-5
0.050, -6.992e-6, -5.356e-5
0.049, -6.973e-6, -5.373e-5
0.048, -6.954e-6, -5.391e-5
0.047, -6.930e-6, -5.408e-5
0.046, -6.922e-6, -5.425e-5
0.045, -6.899e-6, -5.442e-5
0.044, -6.879e-6, -5.460e-5
0.043, -6.870e-6, -5.477e-5
0.042, -6.845e-6, -5.494e-5
0.041, -6.829e-6, -5.511e-5
0.040, -6.820e-6, -5.528e-5
0.039, -6.796e-6, -5.545e-5
0.038, -6.779e-6, -5.562e-5
0.037, -6.766e-6, -5.579e-5
0.036, -6.741e-6, -5.596e-5
0.035, -6.731e-6, -5.613e-5
0.034, -6.719e-6, -5.629e-5
0.033, -6.695e-6, -5.646e-5
0.032, -6.682e-6, -5.663e-5
0.031, -6.672e-6, -5.679e-5
0.030, -6.648e-6, -5.696e-5
0.029, -6.635e-6, -5.713e-5
0.028, -6.629e-6, -5.729e-5
0.027, -6.607e-6, -5.746e-5
0.026, -6.587e-6, -5.762e-5
0.025, -6.579e-6, -5.779e-5
0.024, -6.560e-6, -5.795e-5
0.023, -6.541e-6, -5.811e-5
0.022, -6.534e-6, -5.828e-5
0.021, -6.522e-6, -5.844e-5
0.020, -6.499e-6, -5.860e-5
0.019, -6.488e-6, -5.877e-5
0.018, -6.480e-6, -5.893e-5
0.017, -6.462e-6, -5.909e-5
0.016, -6.444e-6, -5.925e-5
0.015, -6.437e-6, -5.941e-5
0.014, -6.427e-6, -5.957e-5
0.013, -6.406e-6, -5.973e-5
0.012, -6.391e-6, -5.989e-5
0.011, -6.384e-6, -6.005e-5
0.010, -6.370e-6, -6.021e-5
0.009, -6.349e-6, -6.037e-5
0.008, -6.341e-6, -6.053e-5
0.007, -6.335e-6, -6.069e-5
0.006, -6.318e-6, -6.084e-5
0.005, -6.300e-6, -6.100e-5
0.004, -6.292e-6, -6.116e-5
0.003, -6.285e-6, -6.132e-5
0.002, -6.268e-6, -6.147e-5
0.001, -6.251e-6, -6.163e-5
-0.000, -6.243e-6, -6.178e-5
-0.001, -6.238e-6, -6.194e-5
-0.002, -6.222e-6, -6.210e-5
-0.003, -6.203e-6, -6.225e-5
-0.004, -6.192e-6, -6.241e-5
-0.005, -6.183e-6, -6.256e-5
-0.006, -6.166e-6, -6.271e-5
-0.007, -6.152e-6, -6.287e-5
-0.008, -6.144e-6, -6.302e-5
-0.009, -6.138e-6, -6.318e-5
-0.010, -6.124e-6, -6.333e-5
-0.011, -6.108e-6, -6.348e-5
-0.012, -6.098e-6, -6.363e-5
-0.013, -6.093e-6, -6.379e-5
-0.014, -6.084e-6, -6.394e-5
-0.015, -6.069e-6, -6.409e-5
-0.016, -6.054e-6, -6.424e-5
-0.017, -6.048e-6, -6.439e-5
-0.018, -6.043e-6, -6.454e-5
-0.019, -6.034e-6, -6.469e-5
-0.020, -6.017e-6, -6.484e-5
-0.021, -6.004e-6, -6.500e-5
-0.022, -5.998e-6, -6.515e-5
-0.023, -5.992e-6, -6.529e-5
-0.024, -5.981e-6, -6.544e-5
-0.025, -5.967e-6, -6.559e-5
-0.026, -5.955e-6, -6.574e-5
-0.027, -5.950e-6, -6.589e-5
-0.028, -5.946e-6, -6.604e-5
-0.029, -5.936e-6, -6.619e-5
-0.030, -5.921e-6, -6.634e-5
-0.031, -5.908e-6, -6.648e-5
-0.032, -5.901e-6, -6.663e-5
-0.033, -5.896e-6, -6.678e-5
-0.034, -5.886e-6, -6.693e-5
-0.035, -5.873e-6, -6.707e-5
-0.036, -5.860e-6, -6.722e-5
-0.037, -5.853e-6, -6.737e-5
-0.038, -5.850e-6, -6.751e-5
-0.039, -5.843e-6, -6.766e-5
-0.040, -5.829e-6, -6.780e-5
-0.041, -5.816e-6, -6.795e-5
-0.042, -5.806e-6, -6.809e-5
-0.043, -5.801e-6, -6.824e-5
-0.044, -5.795e-6, -6.838e-5
-0.045, -5.785e-6, -6.853e-5
-0.046, -5.772e-6, -6.867e-5
-0.047, -5.761e-6, -6.882e-5
-0.048, -5.756e-6, -6.896e-5
-0.049, -5.752e-6, -6.910e-5
-0.050, -5.726e-6, -6.925e-5

Segment 2:
-0.049, -5.657e-6, -6.939e-5
-0.048, -5.639e-6, -6.953e-5
-0.047, -5.614e-6, -6.967e-5
-0.046, -5.604e-6, -6.981e-5
-0.045, -5.587e-6, -6.995e-5
-0.044, -5.567e-6, -7.009e-5
-0.043, -5.559e-6, -7.023e-5
-0.042, -5.553e-6, -7.037e-5
-0.041, -5.536e-6, -7.051e-5
-0.040, -5.518e-6, -7.064e-5
-0.039, -5.510e-6, -7.078e-5
-0.038, -5.502e-6, -7.092e-5
-0.037, -5.487e-6, -7.106e-5
-0.036, -5.470e-6, -7.119e-5
-0.035, -5.462e-6, -7.133e-5
-0.034, -5.459e-6, -7.147e-5
-0.033, -5.448e-6, -7.160e-5
-0.032, -5.430e-6, -7.174e-5
-0.031, -5.416e-6, -7.187e-5
-0.030, -5.410e-6, -7.201e-5
-0.029, -5.400e-6, -7.214e-5
-0.028, -5.386e-6, -7.228e-5
-0.027, -5.372e-6, -7.241e-5
-0.026, -5.365e-6, -7.255e-5
-0.025, -5.360e-6, -7.268e-5
-0.024, -5.351e-6, -7.281e-5
-0.023, -5.337e-6, -7.295e-5
-0.022, -5.323e-6, -7.308e-5
-0.021, -5.316e-6, -7.321e-5
-0.020, -5.311e-6, -7.335e-5
-0.019, -5.302e-6, -7.348e-5
-0.018, -5.287e-6, -7.361e-5
-0.017, -5.274e-6, -7.374e-5
-0.016, -5.268e-6, -7.387e-5
-0.015, -5.264e-6, -7.401e-5
-0.014, -5.257e-6, -7.414e-5
-0.013, -5.245e-6, -7.427e-5
-0.012, -5.230e-6, -7.440e-5
-0.011, -5.220e-6, -7.453e-5
-0.010, -5.215e-6, -7.466e-5
-0.009, -5.208e-6, -7.479e-5
-0.008, -5.197e-6, -7.492e-5
-0.007, -5.183e-6, -7.505e-5
-0.006, -5.173e-6, -7.518e-5
-0.005, -5.169e-6, -7.531e-5
-0.004, -5.165e-6, -7.544e-5
-0.003, -5.157e-6, -7.557e-5
-0.002, -5.145e-6, -7.570e-5
-0.001, -5.131e-6, -7.582e-5
0.000, -5.122e-6, -7.595e-5
0.001, -5.118e-6, -7.608e-5
0.002, -5.113e-6, -7.621e-5
0.003, -5.104e-6, -7.634e-5
0.004, -5.091e-6, -7.646e-5
0.005, -5.080e-6, -7.659e-5
0.006, -5.073e-6, -7.672e-5
0.007, -5.070e-6, -7.684e-5
0.008, -5.065e-6, -7.697e-5
0.009, -5.056e-6, -7.710e-5
0.010, -5.043e-6, -7.722e-5
0.011, -5.031e-6, -7.735e-5
0.012, -5.023e-6, -7.747e-5
0.013, -5.019e-6, -7.760e-5
0.014, -5.013e-6, -7.772e-5
0.015, -5.002e-6, -7.785e-5
0.016, -4.991e-6, -7.797e-5
0.017, -4.980e-6, -7.810e-5
0.018, -4.975e-6, -7.822e-5
0.019, -4.972e-6, -7.835e-5
0.020, -4.967e-6, -7.847e-5
0.021, -4.959e-6, -7.860e-5
0.022, -4.946e-6, -7.872e-5
0.023, -4.934e-6, -7.884e-5
0.024, -4.928e-6, -7.897e-5
0.025, -4.923e-6, -7.909e-5
0.026, -4.920e-6, -7.921e-5
0.027, -4.913e-6, -7.933e-5
0.028, -4.901e-6, -7.946e-5
0.029, -4.891e-6, -7.958e-5
0.030, -4.881e-6, -7.970e-5
0.031, -4.877e-6, -7.982e-5
0.032, -4.874e-6, -7.995e-5
0.033, -4.870e-6, -8.007e-5
0.034, -4.861e-6, -8.019e-5
0.035, -4.849e-6, -8.031e-5
0.036, -4.838e-6, -8.043e-5
0.037, -4.830e-6, -8.055e-5
0.038, -4.826e-6, -8.067e-5
0.039, -4.822e-6, -8.079e-5
0.040, -4.814e-6, -8.091e-5
0.041, -4.804e-6, -8.103e-5
0.042, -4.792e-6, -8.115e-5
0.043, -4.784e-6, -8.127e-5
0.044, -4.779e-6, -8.139e-5
0.045, -4.776e-6, -8.151e-5
0.046, -4.772e-6, -8.163e-5
0.047, -4.765e-6, -8.175e-5
0.048, -4.753e-6, -8.187e-5
0.049, -4.742e-6, -8.199e-5
0.050, -4.734e-6, -8.211e-5
0.051, -4.729e-6, -8.222e-5
0.052, -4.726e-6, -8.234e-5
0.053, -4.720e-6, -8.246e-5
0.054, -4.711e-6, -8.258e-5
0.055, -4.699e-6, -8.270e-5
0.056, -4.689e-6, -8.281e-5
0.057, -4.683e-6, -8.293e-5
0.058, -4.680e-6, -8.305e-5
0.059, -4.677e-6, -8.316e-5
0.060, -4.670e-6, -8.328e-5
0.061, -4.658e-6, -8.340e-5
0.062, -4.646e-6, -8.351e-5
0.063, -4.637e-6, -8.363e-5
0.064, -4.631e-6, -8.374e-5
0.065, -4.626e-6, -8.386e-5
0.066, -4.620e-6, -8.398e-5
0.067, -4.609e-6, -8.409e-5
0.068, -4.597e-6, -8.421e-5
0.069, -4.589e-6, -8.432e-5
0.070, -4.583e-6, -8.443e-5
0.071, -4.580e-6, -8.455e-5
0.072, -4.576e-6, -8.466e-5
0.073, -4.567e-6, -8.478e-5
0.074, -4.555e-6, -8.489e-5
0.075, -4.544e-6, -8.501e-5
0.076, -4.537e-6, -8.512e-5
0.077, -4.533e-6, -8.523e-5
0.078, -4.529e-6, -8.535e-5
0.079, -4.521e-6, -8.546e-5
0.080, -4.510e-6, -8.557e-5
0.081, -4.497e-6, -8.568e-5
0.082, -4.489e-6, -8.580e-5
0.083, -4.484e-6, -8.591e-5
0.084, -4.480e-6, -8.602e-5
0.085, -4.472e-6, -8.613e-5
0.086, -4.461e-6, -8.624e-5
0.087, -4.446e-6, -8.635e-5
0.088, -4.434e-6, -8.647e-5
0.089, -4.423e-6, -8.658e-5
0.090, -4.411e-6, -8.669e-5
0.091, -4.399e-6, -8.680e-5
0.092, -4.391e-6, -8.691e-5
0.093, -4.386e-6, -8.702e-5
0.094, -4.382e-6, -8.713e-5
0.095, -4.372e-6, -8.723e-5
0.096, -4.357e-6, -8.734e-5
0.097, -4.345e-6, -8.745e-5
0.098, -4.338e-6, -8.756e-5
0.099, -4.333e-6, -8.767e-5
0.100, -4.323e-6, -8.778e-5
0.101, -4.308e-6, -8.788e-5
0.102, -4.295e-6, -8.799e-5
0.103, -4.290e-6, -8.810e-5
0.104, -4.285e-6, -8.821e-5
0.105, -4.274e-6, -8.831e-5
0.106, -4.257e-6, -8.842e-5
0.107, -4.244e-6, -8.853e-5
0.108, -4.237e-6, -8.863e-5
0.109, -4.227e-6, -8.874e-5
0.110, -4.211e-6, -8.884e-5
0.111, -4.197e-6, -8.895e-5
0.112, -4.191e-6, -8.905e-5
0.113, -4.183e-6, -8.916e-5
0.114, -4.165e-6, -8.926e-5
0.115, -4.149e-6, -8.936e-5
0.116, -4.141e-6, -8.947e-5
0.117, -4.132e-6, -8.957e-5
0.118, -4.113e-6, -8.967e-5
0.119, -4.097e-6, -8.978e-5
0.120, -4.092e-6, -8.988e-5
0.121, -4.080e-6, -8.998e-5
0.122, -4.058e-6, -9.008e-5
0.123, -4.044e-6, -9.018e-5
0.124, -4.032e-6, -9.028e-5
0.125, -4.009e-6, -9.038e-5
0.126, -3.997e-6, -9.048e-5
0.127, -3.988e-6, -9.058e-5
0.128, -3.963e-6, -9.068e-5
0.129, -3.948e-6, -9.078e-5
0.130, -3.936e-6, -9.088e-5
0.131, -3.910e-6, -9.098e-5
0.132, -3.899e-6, -9.108e-5
0.133, -3.886e-6, -9.117e-5
0.134, -3.857e-6, -9.127e-5
0.135, -3.841e-6, -9.137e-5
0.136, -3.813e-6, -9.146e-5
0.137, -3.799e-6, -9.156e-5
0.138, -3.775e-6, -9.165e-5
0.139, -3.753e-6, -9.174e-5
0.140, -3.734e-6, -9.184e-5
0.141, -3.706e-6, -9.193e-5
0.142, -3.692e-6, -9.202e-5
0.143, -3.658e-6, -9.211e-5
0.144, -3.636e-6, -9.220e-5
0.145, -3.607e-6, -9.229e-5
0.146, -3.586e-6, -9.238e-5
0.147, -3.557e-6, -9.247e-5
0.148, -3.524e-6, -9.256e-5
0.149, -3.505e-6, -9.265e-5
0.150, -3.467e-6, -9.274e-5
0.151, -3.439e-6, -9.282e-5
0.152, -3.409e-6, -9.291e-5
0.153, -3.371e-6, -9.299e-5
0.154, -3.345e-6, -9.307e-5
0.155, -3.311e-6, -9.316e-5
0.156, -3.269e-6, -9.324e-5
0.157, -3.232e-6, -9.332e-5
0.158, -3.202e-6, -9.340e-5
0.159, -3.163e-6, -9.348e-5
0.160, -3.121e-6, -9.356e-5
0.161, -3.078e-6, -9.363e-5
0.162, -3.030e-6, -9.371e-5
0.163, -2.989e-6, -9.378e-5
0.164, -2.948e-6, -9.386e-5
0.165, -2.906e-6, -9.393e-5
0.166, -2.847e-6, -9.400e-5
0.167, -2.799e-6, -9.407e-5
0.168, -2.747e-6, -9.414e-5
0.169, -2.695e-6, -9.421e-5
0.170, -2.637e-6, -9.427e-5
0.171, -2.588e-6, -9.434e-5
0.172, -2.533e-6, -9.440e-5
0.173, -2.470e-6, -9.446e-5
0.174, -2.408e-6, -9.452e-5
0.175, -2.347e-6, -9.458e-5
0.176, -2.284e-6, -9.464e-5
0.177, -2.215e-6, -9.470e-5
0.178, -2.147e-6, -9.475e-5
0.179, -2.074e-6, -9.480e-5
0.180, -2.004e-6, -9.485e-5
0.181, -1.931e-6, -9.490e-5
0.182, -1.849e-6, -9.495e-5
0.183, -1.771e-6, -9.499e-5
0.184, -1.688e-6, -9.503e-5
0.185, -1.607e-6, -9.507e-5
0.186, -1.520e-6, -9.511e-5
0.187, -1.427e-6, -9.515e-5
0.188, -1.335e-6, -9.518e-5
0.189, -1.230e-6, -9.521e-5
0.190, -1.132e-6, -9.524e-5
0.191, -1.033e-6, -9.526e-5
0.192, -9.331e-7, -9.529e-5
0.193, -8.224e-7, -9.531e-5
0.194, -7.178e-7, -9.533e-5
0.195, -5.994e-7, -9.534e-5
0.196, -4.843e-7, -9.535e-5
0.197, -3.703e-7, -9.536e-5
0.198, -2.488e-7, -9.537e-5
0.199, -1.225e-7, -9.537e-5
0.200, 5.260e-9, -9.537e-5
0.201, 1.458e-7, -9.537e-5
0.202, 2.925e-7, -9.536e-5
0.203, 4.301e-7, -9.535e-5
0.204, 5.722e-7, -9.534e-5
0.205, 7.071e-7, -9.532e-5
0.206, 8.491e-7, -9.530e-5
0.207, 1.001e-6, -9.527e-5
0.208, 1.161e-6, -9.524e-5
0.209, 1.321e-6, -9.521e-5
0.210, 1.479e-6, -9.517e-5
0.211, 1.651e-6, -9.513e-5
0.212, 1.836e-6, -9.508e-5
0.213, 2.008e-6, -9.503e-5
0.214, 2.182e-6, -9.498e-5
0.215, 2.361e-6, -9.492e-5
0.216, 2.542e-6, -9.486e-5
0.217, 2.735e-6, -9.479e-5
0.218, 2.923e-6, -9.472e-5
0.219, 3.122e-6, -9.464e-5
0.220, 3.324e-6, -9.456e-5
0.221, 3.523e-6, -9.447e-5
0.222, 3.729e-6, -9.437e-5
0.223, 3.942e-6, -9.428e-5
0.224, 4.155e-6, -9.417e-5
0.225, 4.369e-6, -9.406e-5
0.226, 4.587e-6, -9.395e-5
0.227, 4.815e-6, -9.383e-5
0.228, 5.054e-6, -9.370e-5
0.229, 5.275e-6, -9.357e-5
0.230, 5.504e-6, -9.343e-5
0.231, 5.742e-6, -9.329e-5
0.232, 5.976e-6, -9.314e-5
0.233, 6.213e-6, -9.298e-5
0.234, 6.470e-6, -9.282e-5
0.235, 6.712e-6, -9.265e-5
0.236, 6.951e-6, -9.248e-5
0.237, 7.204e-6, -9.230e-5
0.238, 7.462e-6, -9.211e-5
0.239, 7.715e-6, -9.192e-5
0.240, 7.974e-6, -9.172e-5
0.241, 8.239e-6, -9.151e-5
0.242, 8.500e-6, -9.130e-5
0.243, 8.758e-6, -9.108e-5
0.244, 9.018e-6, -9.086e-5
0.245, 9.277e-6, -9.063e-5
0.246, 9.544e-6, -9.039e-5
0.247, 9.812e-6, -9.014e-5
0.248, 1.008e-5, -8.989e-5
0.249, 1.034e-5, -8.963e-5
0.250, 1.060e-5, -8.937e-5
0.251, 1.087e-5, -8.909e-5
0.252, 1.113e-5, -8.882e-5
0.253, 1.140e-5, -8.853e-5
0.254, 1.166e-5, -8.824e-5
0.255, 1.191e-5, -8.794e-5
0.256, 1.217e-5, -8.764e-5
0.257, 1.244e-5, -8.733e-5
0.258, 1.269e-5, -8.701e-5
0.259, 1.296e-5, -8.669e-5
0.260, 1.321e-5, -8.636e-5
0.261, 1.345e-5, -8.602e-5
0.262, 1.369e-5, -8.568e-5
0.263, 1.394e-5, -8.533e-5
0.264, 1.417e-5, -8.497e-5
0.265, 1.442e-5, -8.461e-5
0.266, 1.465e-5, -8.425e-5
0.267, 1.488e-5, -8.388e-5
0.268, 1.510e-5, -8.350e-5
0.269, 1.532e-5, -8.311e-5
0.270, 1.553e-5, -8.273e-5
0.271, 1.574e-5, -8.233e-5
0.272, 1.595e-5, -8.193e-5
0.273, 1.615e-5, -8.153e-5
0.274, 1.634e-5, -8.112e-5
0.275, 1.653e-5, -8.071e-5
0.276, 1.672e-5, -8.029e-5
0.277, 1.690e-5, -7.987e-5
0.278, 1.707e-5, -7.944e-5
0.279, 1.724e-5, -7.901e-5
0.280, 1.740e-5, -7.858e-5
0.281, 1.755e-5, -7.814e-5
0.282, 1.769e-5, -7.769e-5
0.283, 1.784e-5, -7.725e-5
0.284, 1.796e-5, -7.680e-5
0.285, 1.809e-5, -7.635e-5
0.286, 1.821e-5, -7.589e-5
0.287, 1.832e-5, -7.543e-5
0.288, 1.842e-5, -7.497e-5
0.289, 1.852e-5, -7.451e-5
0.290, 1.862e-5, -7.404e-5
0.291, 1.870e-5, -7.358e-5
0.292, 1.878e-5, -7.311e-5
0.293, 1.885e-5, -7.264e-5
0.294, 1.891e-5, -7.216e-5
0.295, 1.897e-5, -7.169e-5
0.296, 1.902e-5, -7.121e-5
0.297, 1.906e-5, -7.074e-5
0.298, 1.911e-5, -7.026e-5
0.299, 1.914e-5, -6.978e-5
0.300, 1.915e-5, -6.930e-5
0.301, 1.918e-5, -6.882e-5
0.302, 1.920e-5, -6.834e-5
0.303, 1.919e-5, -6.786e-5
0.304, 1.920e-5, -6.738e-5
0.305, 1.919e-5, -6.690e-5
0.306, 1.918e-5, -6.642e-5
0.307, 1.916e-5, -6.595e-5
0.308, 1.915e-5, -6.547e-5
0.309, 1.911e-5, -6.499e-5
0.310, 1.908e-5, -6.451e-5
0.311, 1.905e-5, -6.404e-5
0.312, 1.901e-5, -6.356e-5
0.313, 1.897e-5, -6.309e-5
0.314, 1.892e-5, -6.261e-5
0.315, 1.887e-5, -6.214e-5
0.316, 1.881e-5, -6.167e-5
0.317, 1.874e-5, -6.120e-5
0.318, 1.868e-5, -6.074e-5
0.319, 1.861e-5, -6.027e-5
0.320, 1.854e-5, -5.981e-5
0.321, 1.848e-5, -5.934e-5
0.322, 1.840e-5, -5.888e-5
0.323, 1.832e-5, -5.843e-5
0.324, 1.824e-5, -5.797e-5
0.325, 1.816e-5, -5.752e-5
0.326, 1.808e-5, -5.706e-5
0.327, 1.799e-5, -5.661e-5
0.328, 1.790e-5, -5.617e-5
0.329, 1.781e-5, -5.572e-5
0.330, 1.772e-5, -5.528e-5
0.331, 1.763e-5, -5.484e-5
0.332, 1.753e-5, -5.440e-5
0.333, 1.743e-5, -5.396e-5
0.334, 1.733e-5, -5.353e-5
0.335, 1.723e-5, -5.310e-5
0.336, 1.713e-5, -5.267e-5
0.337, 1.704e-5, -5.225e-5
0.338, 1.694e-5, -5.182e-5
0.339, 1.684e-5, -5.140e-5
0.340, 1.674e-5, -5.098e-5
0.341, 1.664e-5, -5.057e-5
0.342, 1.654e-5, -5.015e-5
0.343, 1.644e-5, -4.974e-5
0.344, 1.634e-5, -4.933e-5
0.345, 1.624e-5, -4.893e-5
0.346, 1.615e-5, -4.852e-5
0.347, 1.605e-5, -4.812e-5
0.348, 1.595e-5, -4.772e-5
0.349, 1.585e-5, -4.733e-5
0.350, 1.575e-5, -4.694e-5
0.351, 1.565e-5, -4.654e-5
0.352, 1.555e-5, -4.615e-5
0.353, 1.545e-5, -4.577e-5
0.354, 1.536e-5, -4.538e-5
0.355, 1.527e-5, -4.500e-5
0.356, 1.517e-5, -4.462e-5
0.357, 1.508e-5, -4.425e-5
0.358, 1.498e-5, -4.387e-5
0.359, 1.489e-5, -4.350e-5
0.360, 1.480e-5, -4.313e-5
0.361, 1.471e-5, -4.276e-5
0.362, 1.462e-5, -4.240e-5
0.363, 1.453e-5, -4.203e-5
0.364, 1.444e-5, -4.167e-5
0.365, 1.435e-5, -4.131e-5
0.366, 1.425e-5, -4.096e-5
0.367, 1.417e-5, -4.060e-5
0.368, 1.408e-5, -4.025e-5
0.369, 1.400e-5, -3.990e-5
0.370, 1.391e-5, -3.955e-5
0.371, 1.383e-5, -3.921e-5
0.372, 1.375e-5, -3.886e-5
0.373, 1.367e-5, -3.852e-5
0.374, 1.359e-5, -3.818e-5
0.375, 1.351e-5, -3.785e-5
0.376, 1.343e-5, -3.751e-5
0.377, 1.336e-5, -3.718e-5
0.378, 1.328e-5, -3.684e-5
0.379, 1.320e-5, -3.651e-5
0.380, 1.312e-5, -3.619e-5
0.381, 1.305e-5, -3.586e-5
0.382, 1.298e-5, -3.553e-5
0.383, 1.291e-5, -3.521e-5
0.384, 1.283e-5, -3.489e-5
0.385, 1.277e-5, -3.457e-5
0.386, 1.269e-5, -3.425e-5
0.387, 1.263e-5, -3.394e-5
0.388, 1.256e-5, -3.362e-5
0.389, 1.248e-5, -3.331e-5
0.390, 1.242e-5, -3.300e-5
0.391, 1.235e-5, -3.269e-5
0.392, 1.229e-5, -3.239e-5
0.393, 1.223e-5, -3.208e-5
0.394, 1.216e-5, -3.178e-5
0.395, 1.210e-5, -3.147e-5
0.396, 1.204e-5, -3.117e-5
0.397, 1.198e-5, -3.087e-5
0.398, 1.192e-5, -3.058e-5
0.399, 1.186e-5, -3.028e-5
0.400, 1.180e-5, -2.998e-5
0.401, 1.174e-5, -2.969e-5
0.402, 1.169e-5, -2.940e-5
0.403, 1.163e-5, -2.911e-5
0.404, 1.157e-5, -2.882e-5
0.405, 1.151e-5, -2.853e-5
0.406, 1.146e-5, -2.824e-5
0.407, 1.141e-5, -2.796e-5
0.408, 1.136e-5, -2.767e-5
0.409, 1.130e-5, -2.739e-5
0.410, 1.125e-5, -2.711e-5
0.411, 1.120e-5, -2.683e-5
0.412, 1.114e-5, -2.655e-5
0.413, 1.108e-5, -2.628e-5
0.414, 1.104e-5, -2.600e-5
0.415, 1.099e-5, -2.572e-5
0.416, 1.094e-5, -2.545e-5
0.417, 1.089e-5, -2.518e-5
0.418, 1.084e-5, -2.491e-5
0.419, 1.080e-5, -2.464e-5
0.420, 1.075e-5, -2.437e-5
0.421, 1.070e-5, -2.410e-5
0.422, 1.066e-5, -2.383e-5
0.423, 1.062e-5, -2.357e-5
0.424, 1.057e-5, -2.331e-5
0.425, 1.053e-5, -2.304e-5
0.426, 1.048e-5, -2.278e-5
0.427, 1.044e-5, -2.252e-5
0.428, 1.040e-5, -2.226e-5
0.429, 1.036e-5, -2.200e-5
0.430, 1.032e-5, -2.174e-5
0.431, 1.028e-5, -2.148e-5
0.432, 1.024e-5, -2.123e-5
0.433, 1.020e-5, -2.097e-5
0.434, 1.016e-5, -2.072e-5
0.435, 1.012e-5, -2.047e-5
0.436, 1.008e-5, -2.022e-5
0.437, 1.004e-5, -1.996e-5
0.438, 1.000e-5, -1.971e-5
0.439, 9.967e-6, -1.946e-5
0.440, 9.930e-6, -1.922e-5
0.441, 9.894e-6, -1.897e-5
0.442, 9.855e-6, -1.872e-5
0.443, 9.823e-6, -1.848e-5
0.444, 9.788e-6, -1.823e-5
0.445, 9.749e-6, -1.799e-5
0.446, 9.714e-6, -1.775e-5
0.447, 9.682e-6, -1.750e-5
0.448, 9.648e-6, -1.726e-5
0.449, 9.611e-6, -1.702e-5
0.450, 9.580e-6, -1.678e-5
0.451, 9.544e-6, -1.654e-5
0.452, 9.511e-6, -1.631e-5
0.453, 9.481e-6, -1.607e-5
0.454, 9.449e-6, -1.583e-5
0.455, 9.416e-6, -1.560e-5
0.456, 9.382e-6, -1.536e-5
0.457, 9.349e-6, -1.513e-5
0.458, 9.318e-6, -1.490e-5
0.459, 9.291e-6, -1.466e-5
0.460, 9.259e-6, -1.443e-5
0.461, 9.230e-6, -1.420e-5
0.462, 9.203e-6, -1.397e-5
0.463, 9.170e-6, -1.374e-5
0.464, 9.142e-6, -1.351e-5
0.465, 9.115e-6, -1.329e-5
0.466, 9.086e-6, -1.306e-5
0.467, 9.058e-6, -1.283e-5
0.468, 9.033e-6, -1.261e-5
0.469, 9.004e-6, -1.238e-5
0.470, 8.973e-6, -1.216e-5
0.471, 8.947e-6, -1.193e-5
0.472, 8.921e-6, -1.171e-5
0.473, 8.896e-6, -1.149e-5
0.474, 8.868e-6, -1.127e-5
0.475, 8.843e-6, -1.105e-5
0.476, 8.817e-6, -1.083e-5
0.477, 8.790e-6, -1.061e-5
0.478, 8.764e-6, -1.039e-5
0.479, 8.740e-6, -1.017e-5
0.480, 8.717e-6, -9.950e-6
0.481, 8.690e-6, -9.733e-6
0.482, 8.666e-6, -9.516e-6
0.483, 8.644e-6, -9.300e-6
0.484, 8.617e-6, -9.085e-6
0.485, 8.592e-6, -8.870e-6
0.486, 8.568e-6, -8.656e-6
0.487, 8.547e-6, -8.442e-6
0.488, 8.523e-6, -8.229e-6
0.489, 8.500e-6, -8.016e-6
0.490, 8.476e-6, -7.805e-6
0.491, 8.454e-6, -7.593e-6
0.492, 8.431e-6, -7.382e-6
0.493, 8.410e-6, -7.172e-6
0.494, 8.386e-6, -6.963e-6
0.495, 8.365e-6, -6.753e-6
0.496, 8.344e-6, -6.545e-6
0.497, 8.324e-6, -6.337e-6
0.498, 8.300e-6, -6.129e-6
0.499, 8.279e-6, -5.922e-6
0.500, 8.238e-6, -5.716e-6

Segment 3:
0.499, 8.135e-6, -5.513e-6
0.498, 8.084e-6, -5.311e-6
0.497, 8.041e-6, -5.110e-6
0.496, 7.998e-6, -4.910e-6
0.495, 7.966e-6, -4.711e-6
0.494, 7.937e-6, -4.512e-6
0.493, 7.906e-6, -4.315e-6
0.492, 7.878e-6, -4.118e-6
0.491, 7.851e-6, -3.921e-6
0.490, 7.822e-6, -3.726e-6
0.489, 7.791e-6, -3.531e-6
0.488, 7.768e-6, -3.337e-6
0.487, 7.742e-6, -3.143e-6
0.486, 7.717e-6, -2.950e-6
0.485, 7.690e-6, -2.758e-6
0.484, 7.667e-6, -2.566e-6
0.483, 7.643e-6, -2.375e-6
0.482, 7.618e-6, -2.185e-6
0.481, 7.593e-6, -1.995e-6
0.480, 7.571e-6, -1.806e-6
0.479, 7.548e-6, -1.617e-6
0.478, 7.525e-6, -1.429e-6
0.477, 7.501e-6, -1.241e-6
0.476, 7.481e-6, -1.054e-6
0.475, 7.459e-6, -8.680e-7
0.474, 7.436e-6, -6.821e-7
0.473, 7.411e-6, -4.968e-7
0.472, 7.389e-6, -3.121e-7
0.471, 7.369e-6, -1.278e-7
0.470, 7.347e-6, 5.583e-8
0.469, 7.327e-6, 2.390e-7
0.468, 7.304e-6, 4.216e-7
0.467, 7.284e-6, 6.037e-7
0.466, 7.264e-6, 7.853e-7
0.465, 7.243e-6, 9.664e-7
0.464, 7.221e-6, 1.147e-6
0.463, 7.200e-6, 1.327e-6
0.462, 7.181e-6, 1.506e-6
0.461, 7.160e-6, 1.685e-6
0.460, 7.140e-6, 1.864e-6
0.459, 7.120e-6, 2.042e-6
0.458, 7.101e-6, 2.219e-6
0.457, 7.084e-6, 2.397e-6
0.456, 7.063e-6, 2.573e-6
0.455, 7.042e-6, 2.749e-6
0.454, 7.020e-6, 2.925e-6
0.453, 7.000e-6, 3.100e-6
0.452, 6.983e-6, 3.274e-6
0.451, 6.963e-6, 3.448e-6
0.450, 6.944e-6, 3.622e-6
0.449, 6.925e-6, 3.795e-6
0.448, 6.904e-6, 3.968e-6
0.447, 6.887e-6, 4.140e-6
0.446, 6.868e-6, 4.312e-6
0.445, 6.849e-6, 4.483e-6
0.444, 6.831e-6, 4.654e-6
0.443, 6.811e-6, 4.824e-6
0.442, 6.793e-6, 4.994e-6
0.441, 6.774e-6, 5.163e-6
0.440, 6.755e-6, 5.332e-6
0.439, 6.737e-6, 5.500e-6
0.438, 6.718e-6, 5.668e-6
0.437, 6.702e-6, 5.836e-6
0.436, 6.686e-6, 6.003e-6
0.435, 6.666e-6, 6.170e-6
0.434, 6.645e-6, 6.336e-6
0.433, 6.625e-6, 6.501e-6
0.432, 6.606e-6, 6.666e-6
0.431, 6.589e-6, 6.831e-6
0.430, 6.569e-6, 6.995e-6
0.429, 6.552e-6, 7.159e-6
0.428, 6.533e-6, 7.323e-6
0.427, 6.514e-6, 7.485e-6
0.426, 6.495e-6, 7.648e-6
0.425, 6.478e-6, 7.810e-6
0.424, 6.461e-6, 7.971e-6
0.423, 6.444e-6, 8.132e-6
0.422, 6.423e-6, 8.293e-6
0.421, 6.406e-6, 8.453e-6
0.420, 6.389e-6, 8.613e-6
0.419, 6.371e-6, 8.772e-6
0.418, 6.350e-6, 8.931e-6
0.417, 6.331e-6, 9.089e-6
0.416, 6.312e-6, 9.247e-6
0.415, 6.294e-6, 9.404e-6
0.414, 6.272e-6, 9.561e-6
0.413, 6.249e-6, 9.717e-6
0.412, 6.226e-6, 9.873e-6
0.411, 6.209e-6, 1.003e-5
0.410, 6.189e-6, 1.018e-5
0.409, 6.168e-6, 1.034e-5
0.408, 6.150e-6, 1.049e-5
0.407, 6.127e-6, 1.064e-5
0.406, 6.110e-6, 1.080e-5
0.405, 6.088e-6, 1.095e-5
0.404, 6.067e-6, 1.110e-5
0.403, 6.044e-6, 1.125e-5
0.402, 6.022e-6, 1.140e-5
0.401, 6.003e-6, 1.155e-5
0.400, 5.980e-6, 1.170e-5
0.399, 5.958e-6, 1.185e-5
0.398, 5.935e-6, 1.200e-5
0.397, 5.916e-6, 1.215e-5
0.396, 5.891e-6, 1.229e-5
0.395, 5.866e-6, 1.244e-5
0.394, 5.840e-6, 1.259e-5
0.393, 5.818e-6, 1.273e-5
0.392, 5.794e-6, 1.288e-5
0.391, 5.769e-6, 1.302e-5
0.390, 5.743e-6, 1.317e-5
0.389, 5.719e-6, 1.331e-5
0.388, 5.693e-6, 1.345e-5
0.387, 5.664e-6, 1.359e-5
0.386, 5.638e-6, 1.373e-5
0.385, 5.611e-6, 1.387e-5
0.384, 5.583e-6, 1.401e-5
0.383, 5.554e-6, 1.415e-5
0.382, 5.528e-6, 1.429e-5
0.381, 5.496e-6, 1.443e-5
0.380, 5.464e-6, 1.456e-5
0.379, 5.434e-6, 1.470e-5
0.378, 5.404e-6, 1.483e-5
0.377, 5.370e-6, 1.497e-5
0.376, 5.339e-6, 1.510e-5
0.375, 5.306e-6, 1.524e-5
0.374, 5.269e-6, 1.537e-5
0.373, 5.238e-6, 1.550e-5
0.372, 5.202e-6, 1.563e-5
0.371, 5.162e-6, 1.576e-5
0.370, 5.128e-6, 1.589e-5
0.369, 5.090e-6, 1.601e-5
0.368, 5.050e-6, 1.614e-5
0.367, 5.011e-6, 1.626e-5
0.366, 4.968e-6, 1.639e-5
0.365, 4.921e-6, 1.651e-5
0.364, 4.870e-6, 1.663e-5
0.363, 4.825e-6, 1.675e-5
0.362, 4.779e-6, 1.687e-5
0.361, 4.736e-6, 1.699e-5
0.360, 4.685e-6, 1.711e-5
0.359, 4.634e-6, 1.722e-5
0.358, 4.584e-6, 1.734e-5
0.357, 4.533e-6, 1.745e-5
0.356, 4.482e-6, 1.756e-5
0.355, 4.431e-6, 1.768e-5
0.354, 4.376e-6, 1.778e-5
0.353, 4.324e-6, 1.789e-5
0.352, 4.257e-6, 1.800e-5
0.351, 4.196e-6, 1.810e-5
0.350, 4.137e-6, 1.821e-5
0.349, 4.076e-6, 1.831e-5
0.348, 4.008e-6, 1.841e-5
0.347, 3.942e-6, 1.851e-5
0.346, 3.873e-6, 1.860e-5
0.345, 3.800e-6, 1.870e-5
0.344, 3.729e-6, 1.879e-5
0.343, 3.652e-6, 1.888e-5
0.342, 3.580e-6, 1.897e-5
0.341, 3.499e-6, 1.906e-5
0.340, 3.415e-6, 1.915e-5
0.339, 3.335e-6, 1.923e-5
0.338, 3.246e-6, 1.931e-5
0.337, 3.158e-6, 1.939e-5
0.336, 3.063e-6, 1.947e-5
0.335, 2.974e-6, 1.954e-5
0.334, 2.875e-6, 1.961e-5
0.333, 2.779e-6, 1.968e-5
0.332, 2.679e-6, 1.975e-5
0.331, 2.578e-6, 1.981e-5
0.330, 2.471e-6, 1.988e-5
0.329, 2.361e-6, 1.993e-5
0.328, 2.249e-6, 1.999e-5
0.327, 2.138e-6, 2.004e-5
0.326, 2.021e-6, 2.009e-5
0.325, 1.898e-6, 2.014e-5
0.324, 1.768e-6, 2.019e-5
0.323, 1.638e-6, 2.023e-5
0.322, 1.506e-6, 2.027e-5
0.321, 1.376e-6, 2.030e-5
0.320, 1.237e-6, 2.033e-5
0.319, 1.096e-6, 2.036e-5
0.318, 9.585e-7, 2.038e-5
0.317, 8.118e-7, 2.040e-5
0.316, 6.621e-7, 2.042e-5
0.315, 5.066e-7, 2.043e-5
0.314, 3.508e-7, 2.044e-5
0.313, 1.817e-7, 2.044e-5
0.312, 5.188e-9, 2.044e-5
0.311, -1.630e-7, 2.044e-5
0.310, -3.334e-7, 2.043e-5
0.309, -5.068e-7, 2.042e-5
0.308, -6.819e-7, 2.040e-5
0.307, -8.664e-7, 2.038e-5
0.306, -1.056e-6, 2.035e-5
0.305, -1.240e-6, 2.032e-5
0.304, -1.441e-6, 2.029e-5
0.303, -1.644e-6, 2.025e-5
0.302, -1.838e-6, 2.020e-5
0.301, -2.045e-6, 2.015e-5
0.300, -2.249e-6, 2.009e-5
0.299, -2.456e-6, 2.003e-5
0.298, -2.667e-6, 1.997e-5
0.297, -2.887e-6, 1.989e-5
0.296, -3.110e-6, 1.982e-5
0.295, -3.331e-6, 1.973e-5
0.294, -3.562e-6, 1.964e-5
0.293, -3.785e-6, 1.955e-5
0.292, -4.016e-6, 1.945e-5
0.291, -4.248e-6, 1.934e-5
0.290, -4.496e-6, 1.923e-5
0.289, -4.742e-6, 1.911e-5
0.288, -4.982e-6, 1.899e-5
0.287, -5.224e-6, 1.886e-5
0.286, -5.465e-6, 1.872e-5
0.285, -5.720e-6, 1.858e-5
0.284, -5.973e-6, 1.843e-5
0.283, -6.220e-6, 1.827e-5
0.282, -6.479e-6, 1.811e-5
0.281, -6.732e-6, 1.794e-5
0.280, -6.992e-6, 1.777e-5
0.279, -7.254e-6, 1.758e-5
0.278, -7.516e-6, 1.740e-5
0.277, -7.787e-6, 1.720e-5
0.276, -8.051e-6, 1.700e-5
0.275, -8.314e-6, 1.679e-5
0.274, -8.573e-6, 1.658e-5
0.273, -8.836e-6, 1.636e-5
0.272, -9.103e-6, 1.613e-5
0.271, -9.370e-6, 1.590e-5
0.270, -9.626e-6, 1.566e-5
0.269, -9.896e-6, 1.541e-5
0.268, -1.016e-5, 1.515e-5
0.267, -1.042e-5, 1.489e-5
0.266, -1.068e-5, 1.463e-5
0.265, -1.094e-5, 1.435e-5
0.264, -1.120e-5, 1.407e-5
0.263, -1.146e-5, 1.379e-5
0.262, -1.171e-5, 1.349e-5
0.261, -1.196e-5, 1.319e-5
0.260, -1.221e-5, 1.289e-5
0.259, -1.245e-5, 1.258e-5
0.258, -1.269e-5, 1.226e-5
0.257, -1.293e-5, 1.194e-5
0.256, -1.316e-5, 1.161e-5
0.255, -1.341e-5, 1.127e-5
0.254, -1.362e-5, 1.093e-5
0.253, -1.385e-5, 1.059e-5
0.252, -1.407e-5, 1.023e-5
0.251, -1.429e-5, 9.878e-6
0.250, -1.449e-5, 9.515e-6
0.249, -1.470e-5, 9.148e-6
0.248, -1.489e-5, 8.775e-6
0.247, -1.508e-5, 8.398e-6
0.246, -1.527e-5, 8.017e-6
0.245, -1.545e-5, 7.630e-6
0.244, -1.563e-5, 7.239e-6
0.243, -1.580e-5, 6.844e-6
0.242, -1.597e-5, 6.445e-6
0.241, -1.612e-5, 6.042e-6
0.240, -1.628e-5, 5.635e-6
0.239, -1.642e-5, 5.225e-6
0.238, -1.656e-5, 4.811e-6
0.237, -1.669e-5, 4.393e-6
0.236, -1.682e-5, 3.973e-6
0.235, -1.694e-5, 3.549e-6
0.234, -1.706e-5, 3.123e-6
0.233, -1.717e-5, 2.694e-6
0.232, -1.726e-5, 2.262e-6
0.231, -1.735e-5, 1.828e-6
0.230, -1.744e-5, 1.392e-6
0.229, -1.751e-5, 9.542e-7
0.228, -1.759e-5, 5.145e-7
0.227, -1.766e-5, 7.312e-8
0.226, -1.771e-5, -3.696e-7
0.225, -1.777e-5, -8.139e-7
0.224, -1.781e-5, -1.259e-6
0.223, -1.785e-5, -1.705e-6
0.222, -1.788e-5, -2.152e-6
0.221, -1.791e-5, -2.600e-6
0.220, -1.793e-5, -3.048e-6
0.219, -1.795e-5, -3.497e-6
0.218, -1.796e-5, -3.946e-6
0.217, -1.796e-5, -4.395e-6
0.216, -1.796e-5, -4.844e-6
0.215, -1.796e-5, -5.293e-6
0.214, -1.794e-5, -5.742e-6
0.213, -1.792e-5, -6.189e-6
0.212, -1.790e-5, -6.637e-6
0.211, -1.787e-5, -7.084e-6
0.210, -1.784e-5, -7.530e-6
0.209, -1.780e-5, -7.975e-6
0.208, -1.776e-5, -8.419e-6
0.207, -1.771e-5, -8.861e-6
0.206, -1.767e-5, -9.303e-6
0.205, -1.761e-5, -9.743e-6
0.204, -1.754e-5, -1.018e-5
0.203, -1.748e-5, -1.062e-5
0.202, -1.742e-5, -1.105e-5
0.201, -1.737e-5, -1.149e-5
0.200, -1.730e-5, -1.192e-5
0.199, -1.723e-5, -1.235e-5
0.198, -1.715e-5, -1.278e-5
0.197, -1.708e-5, -1.321e-5
0.196, -1.700e-5, -1.363e-5
0.195, -1.690e-5, -1.406e-5
0.194, -1.682e-5, -1.448e-5
0.193, -1.674e-5, -1.489e-5
0.192, -1.666e-5, -1.531e-5
0.191, -1.657e-5, -1.573e-5
0.190, -1.648e-5, -1.614e-5
0.189, -1.639e-5, -1.655e-5
0.188, -1.630e-5, -1.695e-5
0.187, -1.621e-5, -1.736e-5
0.186, -1.612e-5, -1.776e-5
0.185, -1.603e-5, -1.816e-5
0.184, -1.593e-5, -1.856e-5
0.183, -1.584e-5, -1.896e-5
0.182, -1.575e-5, -1.935e-5
0.181, -1.565e-5, -1.974e-5
0.180, -1.555e-5, -2.013e-5
0.179, -1.546e-5, -2.052e-5
0.178, -1.536e-5, -2.090e-5
0.177, -1.527e-5, -2.128e-5
0.176, -1.517e-5, -2.166e-5
0.175, -1.508e-5, -2.204e-5
0.174, -1.499e-5, -2.242e-5
0.173, -1.489e-5, -2.279e-5
0.172, -1.480e-5, -2.316e-5
0.171, -1.471e-5, -2.353e-5
0.170, -1.461e-5, -2.389e-5
0.169, -1.452e-5, -2.425e-5
0.168, -1.443e-5, -2.461e-5
0.167, -1.433e-5, -2.497e-5
0.166, -1.425e-5, -2.533e-5
0.165, -1.415e-5, -2.568e-5
0.164, -1.407e-5, -2.603e-5
0.163, -1.397e-5, -2.638e-5
0.162, -1.388e-5, -2.673e-5
0.161, -1.378e-5, -2.708e-5
0.160, -1.370e-5, -2.742e-5
0.159, -1.362e-5, -2.776e-5
0.158, -1.353e-5, -2.810e-5
0.157, -1.345e-5, -2.843e-5
0.156, -1.336e-5, -2.877e-5
0.155, -1.328e-5, -2.910e-5
0.154, -1.319e-5, -2.943e-5
0.153, -1.311e-5, -2.976e-5
0.152, -1.304e-5, -3.008e-5
0.151, -1.295e-5, -3.041e-5
0.150, -1.288e-5, -3.073e-5
0.149, -1.280e-5, -3.105e-5
0.148, -1.272e-5, -3.137e-5
0.147, -1.265e-5, -3.168e-5
0.146, -1.257e-5, -3.200e-5
0.145, -1.250e-5, -3.231e-5
0.144, -1.241e-5, -3.262e-5
0.143, -1.234e-5, -3.293e-5
0.142, -1.227e-5, -3.323e-5
0.141, -1.220e-5, -3.354e-5
0.140, -1.212e-5, -3.384e-5
0.139, -1.206e-5, -3.414e-5
0.138, -1.199e-5, -3.444e-5
0.137, -1.192e-5, -3.474e-5
0.136, -1.185e-5, -3.504e-5
0.135, -1.179e-5, -3.533e-5
0.134, -1.172e-5, -3.562e-5
0.133, -1.166e-5, -3.592e-5
0.132, -1.159e-5, -3.621e-5
0.131, -1.153e-5, -3.649e-5
0.130, -1.147e-5, -3.678e-5
0.129, -1.141e-5, -3.707e-5
0.128, -1.134e-5, -3.735e-5
0.127, -1.128e-5, -3.763e-5
0.126, -1.122e-5, -3.791e-5
0.125, -1.117e-5, -3.819e-5
0.124, -1.111e-5, -3.847e-5
0.123, -1.105e-5, -3.875e-5
0.122, -1.099e-5, -3.902e-5
0.121, -1.094e-5, -3.929e-5
0.120, -1.088e-5, -3.957e-5
0.119, -1.083e-5, -3.984e-5
0.118, -1.078e-5, -4.011e-5
0.117, -1.072e-5, -4.037e-5
0.116, -1.065e-5, -4.064e-5
0.115, -1.060e-5, -4.091e-5
0.114, -1.055e-5, -4.117e-5
0.113, -1.050e-5, -4.143e-5
0.112, -1.045e-5, -4.169e-5
0.111, -1.040e-5, -4.195e-5
0.110, -1.035e-5, -4.221e-5
0.109, -1.031e-5, -4.247e-5
0.108, -1.026e-5, -4.273e-5
0.107, -1.021e-5, -4.298e-5
0.106, -1.017e-5, -4.324e-5
0.105, -1.013e-5, -4.349e-5
0.104, -1.007e-5, -4.374e-5
0.103, -1.003e-5, -4.399e-5
0.102, -9.993e-6, -4.424e-5
0.101, -9.949e-6, -4.449e-5
0.100, -9.903e-6, -4.474e-5
0.099, -9.858e-6, -4.498e-5
0.098, -9.814e-6, -4.523e-5
0.097, -9.772e-6, -4.547e-5
0.096, -9.735e-6, -4.572e-5
0.095, -9.695e-6, -4.596e-5
0.094, -9.656e-6, -4.620e-5
0.093, -9.613e-6, -4.644e-5
0.092, -9.571e-6, -4.668e-5
0.091, -9.535e-6, -4.692e-5
0.090, -9.499e-6, -4.716e-5
0.089, -9.462e-6, -4.739e-5
0.088, -9.420e-6, -4.763e-5
0.087, -9.383e-6, -4.786e-5
0.086, -9.354e-6, -4.810e-5
0.085, -9.312e-6, -4.833e-5
0.084, -9.271e-6, -4.856e-5
0.083, -9.232e-6, -4.879e-5
0.082, -9.206e-6, -4.902e-5
0.081, -9.170e-6, -4.925e-5
0.080, -9.128e-6, -4.948e-5
0.079, -9.091e-6, -4.971e-5
0.078, -9.067e-6, -4.993e-5
0.077, -9.027e-6, -5.016e-5
0.076, -8.991e-6, -5.038e-5
0.075, -8.968e-6, -5.061e-5
0.074, -8.928e-6, -5.083e-5
0.073, -8.893e-6, -5.105e-5
0.072, -8.872e-6, -5.128e-5
0.071, -8.833e-6, -5.150e-5
0.070, -8.803e-6, -5.172e-5
0.069, -8.779e-6, -5.194e-5
0.068, -8.741e-6, -5.215e-5
0.067, -8.713e-6, -5.237e-5
0.066, -8.684e-6, -5.259e-5
0.065, -8.653e-6, -5.281e-5
0.064, -8.629e-6, -5.302e-5
0.063, -8.593e-6, -5.324e-5
0.062, -8.574e-6, -5.345e-5
0.061, -8.538e-6, -5.366e-5
0.060, -8.508e-6, -5.388e-5
0.059, -8.486e-6, -5.409e-5
0.058, -8.452e-6, -5.430e-5
0.057, -8.434e-6, -5.451e-5
0.056, -8.397e-6, -5.472e-5
0.055, -8.381e-6, -5.493e-5
0.054, -8.346e-6, -5.514e-5
0.053, -8.324e-6, -5.535e-5
0.052, -8.295e-6, -5.555e-5
0.051, -8.274e-6, -5.576e-5
0.050, -8.245e-6, -5.597e-5
0.049, -8.222e-6, -5.617e-5
0.048, -8.196e-6, -5.638e-5
0.047, -8.173e-6, -5.658e-5
0.046, -8.146e-6, -5.679e-5
0.045, -8.121e-6, -5.699e-5
0.044, -8.098e-6, -5.719e-5
0.043, -8.076e-6, -5.739e-5
0.042, -8.050e-6, -5.759e-5
0.041, -8.030e-6, -5.780e-5
0.040, -8.003e-6, -5.800e-5
0.039, -7.988e-6, -5.820e-5
0.038, -7.956e-6, -5.839e-5
0.037, -7.940e-6, -5.859e-5
0.036, -7.909e-6, -5.879e-5
0.035, -7.897e-6, -5.899e-5
0.034, -7.867e-6, -5.918e-5
0.033, -7.852e-6, -5.938e-5
0.032, -7.826e-6, -5.958e-5
0.031, -7.806e-6, -5.977e-5
0.030, -7.789e-6, -5.997e-5
0.029, -7.759e-6, -6.016e-5
0.028, -7.743e-6, -6.035e-5
0.027, -7.714e-6, -6.055e-5
0.026, -7.704e-6, -6.074e-5
0.025, -7.677e-6, -6.093e-5
0.024, -7.659e-6, -6.112e-5
0.023, -7.643e-6, -6.131e-5
0.022, -7.615e-6, -6.150e-5
0.021, -7.605e-6, -6.169e-5
0.020, -7.578e-6, -6.188e-5
0.019, -7.551e-6, -6.207e-5
0.018, -7.523e-6, -6.226e-5
0.017, -7.511e-6, -6.245e-5
0.016, -7.494e-6, -6.264e-5
0.015, -7.468e-6, -6.282e-5
0.014, -7.457e-6, -6.301e-5
0.013, -7.433e-6, -6.319e-5
0.012, -7.415e-6, -6.338e-5
0.011, -7.405e-6, -6.357e-5
0.010, -7.378e-6, -6.375e-5
0.009, -7.363e-6, -6.393e-5
0.008, -7.344e-6, -6.412e-5
0.007, -7.322e-6, -6.430e-5
0.006, -7.314e-6, -6.448e-5
0.005, -7.292e-6, -6.467e-5
0.004, -7.271e-6, -6.485e-5
0.003, -7.262e-6, -6.503e-5
0.002, -7.240e-6, -6.521e-5
0.001, -7.222e-6, -6.539e-5
0.000, -7.216e-6, -6.557e-5
-0.001, -7.195e-6, -6.575e-5
-0.002, -7.173e-6, -6.593e-5
-0.003, -7.162e-6, -6.611e-5
-0.004, -7.139e-6, -6.629e-5
-0.005, -7.123e-6, -6.647e-5
-0.006, -7.116e-6, -6.664e-5
-0.007, -7.095e-6, -6.682e-5
-0.008, -7.076e-6, -6.700e-5
-0.009, -7.068e-6, -6.717e-5
-0.010, -7.049e-6, -6.735e-5
-0.011, -7.029e-6, -6.753e-5
-0.012, -7.023e-6, -6.770e-5
-0.013, -7.012e-6, -6.788e-5
-0.014, -6.988e-6, -6.805e-5
-0.015, -6.973e-6, -6.823e-5
-0.016, -6.960e-6, -6.840e-5
-0.017, -6.938e-6, -6.857e-5
-0.018, -6.927e-6, -6.875e-5
-0.019, -6.918e-6, -6.892e-5
-0.020, -6.898e-6, -6.909e-5
-0.021, -6.881e-6, -6.926e-5
-0.022, -6.874e-6, -6.944e-5
-0.023, -6.860e-6, -6.961e-5
-0.024, -6.838e-6, -6.978e-5
-0.025, -6.829e-6, -6.995e-5
-0.026, -6.822e-6, -7.012e-5
-0.027, -6.804e-6, -7.029e-5
-0.028, -6.785e-6, -7.046e-5
-0.029, -6.776e-6, -7.063e-5
-0.030, -6.762e-6, -7.080e-5
-0.031, -6.743e-6, -7.097e-5
-0.032, -6.732e-6, -7.114e-5
-0.033, -6.726e-6, -7.130e-5
-0.034, -6.711e-6, -7.147e-5
-0.035, -6.691e-6, -7.164e-5
-0.036, -6.682e-6, -7.181e-5
-0.037, -6.675e-6, -7.197e-5
-0.038, -6.658e-6, -7.214e-5
-0.039, -6.640e-6, -7.230e-5
-0.040, -6.633e-6, -7.247e-5
-0.041, -6.627e-6, -7.264e-5
-0.042, -6.610e-6, -7.280e-5
-0.043, -6.591e-6, -7.297e-5
-0.044, -6.583e-6, -7.313e-5
-0.045, -6.574e-6, -7.330e-5
-0.046, -6.557e-6, -7.346e-5
-0.047, -6.541e-6, -7.362e-5
-0.048, -6.535e-6, -7.379e-5
-0.049, -6.528e-6, -7.395e-5
-0.050, -6.494e-6, -7.411e-5

Segment 4:
-0.049, -6.429e-6, -7.427e-5
-0.048, -6.393e-6, -7.443e-5
-0.047, -6.378e-6, -7.459e-5
-0.046, -6.350e-6, -7.475e-5
-0.045, -6.339e-6, -7.491e-5
-0.044, -6.323e-6, -7.507e-5
-0.043, -6.299e-6, -7.522e-5
-0.042, -6.290e-6, -7.538e-5
-0.041, -6.274e-6, -7.554e-5
-0.040, -6.251e-6, -7.569e-5
-0.039, -6.242e-6, -7.585e-5
-0.038, -6.230e-6, -7.601e-5
-0.037, -6.205e-6, -7.616e-5
-0.036, -6.192e-6, -7.632e-5
-0.035, -6.180e-6, -7.647e-5
-0.034, -6.159e-6, -7.662e-5
-0.033, -6.146e-6, -7.678e-5
-0.032, -6.138e-6, -7.693e-5
-0.031, -6.120e-6, -7.709e-5
-0.030, -6.102e-6, -7.724e-5
-0.029, -6.095e-6, -7.739e-5
-0.028, -6.084e-6, -7.754e-5
-0.027, -6.065e-6, -7.769e-5
-0.026, -6.051e-6, -7.784e-5
-0.025, -6.045e-6, -7.800e-5
-0.024, -6.034e-6, -7.815e-5
-0.023, -6.013e-6, -7.830e-5
-0.022, -6.000e-6, -7.845e-5
-0.021, -5.994e-6, -7.860e-5
-0.020, -5.982e-6, -7.875e-5
-0.019, -5.964e-6, -7.890e-5
-0.018, -5.952e-6, -7.904e-5
-0.017, -5.947e-6, -7.919e-5
-0.016, -5.937e-6, -7.934e-5
-0.015, -5.918e-6, -7.949e-5
-0.014, -5.904e-6, -7.964e-5
-0.013, -5.897e-6, -7.978e-5
-0.012, -5.886e-6, -7.993e-5
-0.011, -5.869e-6, -8.008e-5
-0.010, -5.856e-6, -8.023e-5
-0.009, -5.850e-6, -8.037e-5
-0.008, -5.842e-6, -8.052e-5
-0.007, -5.824e-6, -8.066e-5
-0.006, -5.809e-6, -8.081e-5
-0.005, -5.801e-6, -8.095e-5
-0.004, -5.792e-6, -8.110e-5
-0.003, -5.777e-6, -8.124e-5
-0.002, -5.762e-6, -8.139e-5
-0.001, -5.755e-6, -8.153e-5
-0.000, -5.749e-6, -8.167e-5
0.001, -5.738e-6, -8.182e-5
0.002, -5.720e-6, -8.196e-5
0.003, -5.709e-6, -8.210e-5
0.004, -5.703e-6, -8.225e-5
0.005, -5.694e-6, -8.239e-5
0.006, -5.679e-6, -8.253e-5
0.007, -5.664e-6, -8.267e-5
0.008, -5.657e-6, -8.281e-5
0.009, -5.653e-6, -8.295e-5
0.010, -5.643e-6, -8.310e-5
0.011, -5.627e-6, -8.324e-5
0.012, -5.614e-6, -8.338e-5
0.013, -5.606e-6, -8.352e-5
0.014, -5.598e-6, -8.366e-5
0.015, -5.585e-6, -8.380e-5
0.016, -5.570e-6, -8.394e-5
0.017, -5.561e-6, -8.407e-5
0.018, -5.557e-6, -8.421e-5
0.019, -5.550e-6, -8.435e-5
0.020, -5.535e-6, -8.449e-5
0.021, -5.520e-6, -8.463e-5
0.022, -5.511e-6, -8.477e-5
0.023, -5.507e-6, -8.490e-5
0.024, -5.499e-6, -8.504e-5
0.025, -5.483e-6, -8.518e-5
0.026, -5.469e-6, -8.532e-5
0.027, -5.463e-6, -8.545e-5
0.028, -5.459e-6, -8.559e-5
0.029, -5.452e-6, -8.572e-5
0.030, -5.437e-6, -8.586e-5
0.031, -5.422e-6, -8.600e-5
