Mar. 30, 2023   16:27:29
Cyclic Voltammetry
File: 05mmol120mvs
Data Source:  Experiment
Instrument Model:  CHI600B
Header: 
Note: 

Init E (V) = 0.268
High E (V) = 0.5
Low E (V) = -0.05
Init P/N = N
Scan Rate (V/s) = 0.12
Segment = 4
Sample Interval (V) = 0.001
Quiet Time (sec) = 2
Sensitivity (A/V) = 1e-5

Segment 1:

Segment 2:
Ep = 0.310V
ip = 3.568e-5A
Ah = 2.184e-5C

Segment 3:
Ep = 0.210V
ip = -3.276e-5A
Ah = -2.024e-5C

Segment 4:

Potential/V, Current/A, Charge/C

Segment 1:
0.267, 1.182e-6, 9.854e-9
0.266, 8.833e-8, 1.059e-8
0.265, -9.618e-7, 2.575e-9
0.264, -1.829e-6, -1.266e-8
0.263, -2.736e-6, -3.546e-8
0.262, -3.486e-6, -6.451e-8
0.261, -4.283e-6, -1.002e-7
0.260, -5.021e-6, -1.420e-7
0.259, -5.691e-6, -1.895e-7
0.258, -6.408e-6, -2.429e-7
0.257, -7.025e-6, -3.014e-7
0.256, -7.681e-6, -3.654e-7
0.255, -8.289e-6, -4.345e-7
0.254, -8.858e-6, -5.083e-7
0.253, -9.489e-6, -5.874e-7
0.252, -9.988e-6, -6.706e-7
0.251, -1.058e-5, -7.588e-7
0.250, -1.107e-5, -8.510e-7
0.249, -1.161e-5, -9.478e-7
0.248, -1.211e-5, -1.049e-6
0.247, -1.257e-5, -1.153e-6
0.246, -1.309e-5, -1.262e-6
0.245, -1.350e-5, -1.375e-6
0.244, -1.397e-5, -1.491e-6
0.243, -1.439e-5, -1.611e-6
0.242, -1.480e-5, -1.735e-6
0.241, -1.523e-5, -1.862e-6
0.240, -1.559e-5, -1.991e-6
0.239, -1.602e-5, -2.125e-6
0.238, -1.635e-5, -2.261e-6
0.237, -1.672e-5, -2.401e-6
0.236, -1.708e-5, -2.543e-6
0.235, -1.740e-5, -2.688e-6
0.234, -1.774e-5, -2.836e-6
0.233, -1.802e-5, -2.986e-6
0.232, -1.833e-5, -3.139e-6
0.231, -1.861e-5, -3.294e-6
0.230, -1.888e-5, -3.451e-6
0.229, -1.914e-5, -3.610e-6
0.228, -1.934e-5, -3.772e-6
0.227, -1.963e-5, -3.935e-6
0.226, -1.983e-5, -4.100e-6
0.225, -2.007e-5, -4.268e-6
0.224, -2.028e-5, -4.437e-6
0.223, -2.046e-5, -4.607e-6
0.222, -2.065e-5, -4.779e-6
0.221, -2.081e-5, -4.953e-6
0.220, -2.098e-5, -5.128e-6
0.219, -2.112e-5, -5.304e-6
0.218, -2.124e-5, -5.481e-6
0.217, -2.140e-5, -5.659e-6
0.216, -2.148e-5, -5.838e-6
0.215, -2.163e-5, -6.018e-6
0.214, -2.169e-5, -6.199e-6
0.213, -2.180e-5, -6.381e-6
0.212, -2.187e-5, -6.563e-6
0.211, -2.192e-5, -6.746e-6
0.210, -2.201e-5, -6.929e-6
0.209, -2.203e-5, -7.113e-6
0.208, -2.210e-5, -7.297e-6
0.207, -2.212e-5, -7.481e-6
0.206, -2.212e-5, -7.665e-6
0.205, -2.215e-5, -7.850e-6
0.204, -2.213e-5, -8.034e-6
0.203, -2.217e-5, -8.219e-6
0.202, -2.212e-5, -8.403e-6
0.201, -2.215e-5, -8.588e-6
0.200, -2.211e-5, -8.772e-6
0.199, -2.209e-5, -8.956e-6
0.198, -2.207e-5, -9.140e-6
0.197, -2.202e-5, -9.324e-6
0.196, -2.198e-5, -9.507e-6
0.195, -2.193e-5, -9.690e-6
0.194, -2.188e-5, -9.872e-6
0.193, -2.183e-5, -1.005e-5
0.192, -2.174e-5, -1.024e-5
0.191, -2.171e-5, -1.042e-5
0.190, -2.159e-5, -1.060e-5
0.189, -2.155e-5, -1.078e-5
0.188, -2.146e-5, -1.095e-5
0.187, -2.137e-5, -1.113e-5
0.186, -2.130e-5, -1.131e-5
0.185, -2.120e-5, -1.149e-5
0.184, -2.112e-5, -1.166e-5
0.183, -2.102e-5, -1.184e-5
0.182, -2.092e-5, -1.201e-5
0.181, -2.085e-5, -1.219e-5
0.180, -2.071e-5, -1.236e-5
0.179, -2.064e-5, -1.253e-5
0.178, -2.051e-5, -1.270e-5
0.177, -2.043e-5, -1.287e-5
0.176, -2.031e-5, -1.304e-5
0.175, -2.020e-5, -1.321e-5
0.174, -2.009e-5, -1.338e-5
0.173, -1.998e-5, -1.354e-5
0.172, -1.987e-5, -1.371e-5
0.171, -1.976e-5, -1.387e-5
0.170, -1.964e-5, -1.404e-5
0.169, -1.955e-5, -1.420e-5
0.168, -1.941e-5, -1.436e-5
0.167, -1.933e-5, -1.452e-5
0.166, -1.919e-5, -1.468e-5
0.165, -1.910e-5, -1.484e-5
0.164, -1.897e-5, -1.500e-5
0.163, -1.886e-5, -1.516e-5
0.162, -1.876e-5, -1.531e-5
0.161, -1.864e-5, -1.547e-5
0.160, -1.853e-5, -1.562e-5
0.159, -1.843e-5, -1.578e-5
0.158, -1.831e-5, -1.593e-5
0.157, -1.822e-5, -1.608e-5
0.156, -1.808e-5, -1.623e-5
0.155, -1.800e-5, -1.638e-5
0.154, -1.787e-5, -1.653e-5
0.153, -1.779e-5, -1.668e-5
0.152, -1.766e-5, -1.683e-5
0.151, -1.757e-5, -1.697e-5
0.150, -1.746e-5, -1.712e-5
0.149, -1.736e-5, -1.726e-5
0.148, -1.726e-5, -1.741e-5
0.147, -1.716e-5, -1.755e-5
0.146, -1.705e-5, -1.769e-5
0.145, -1.696e-5, -1.783e-5
0.144, -1.683e-5, -1.797e-5
0.143, -1.676e-5, -1.811e-5
0.142, -1.664e-5, -1.825e-5
0.141, -1.657e-5, -1.839e-5
0.140, -1.645e-5, -1.853e-5
0.139, -1.637e-5, -1.866e-5
0.138, -1.627e-5, -1.880e-5
0.137, -1.618e-5, -1.893e-5
0.136, -1.609e-5, -1.907e-5
0.135, -1.599e-5, -1.920e-5
0.134, -1.591e-5, -1.933e-5
0.133, -1.583e-5, -1.947e-5
0.132, -1.572e-5, -1.960e-5
0.131, -1.566e-5, -1.973e-5
0.130, -1.555e-5, -1.986e-5
0.129, -1.549e-5, -1.999e-5
0.128, -1.539e-5, -2.011e-5
0.127, -1.532e-5, -2.024e-5
0.126, -1.523e-5, -2.037e-5
0.125, -1.515e-5, -2.049e-5
0.124, -1.507e-5, -2.062e-5
0.123, -1.500e-5, -2.074e-5
0.122, -1.492e-5, -2.087e-5
0.121, -1.485e-5, -2.099e-5
0.120, -1.475e-5, -2.112e-5
0.119, -1.470e-5, -2.124e-5
0.118, -1.460e-5, -2.136e-5
0.117, -1.455e-5, -2.148e-5
0.116, -1.447e-5, -2.160e-5
0.115, -1.440e-5, -2.172e-5
0.114, -1.433e-5, -2.184e-5
0.113, -1.426e-5, -2.196e-5
0.112, -1.419e-5, -2.208e-5
0.111, -1.412e-5, -2.220e-5
0.110, -1.406e-5, -2.231e-5
0.109, -1.400e-5, -2.243e-5
0.108, -1.391e-5, -2.255e-5
0.107, -1.387e-5, -2.266e-5
0.106, -1.377e-5, -2.278e-5
0.105, -1.373e-5, -2.289e-5
0.104, -1.365e-5, -2.300e-5
0.103, -1.361e-5, -2.312e-5
0.102, -1.354e-5, -2.323e-5
0.101, -1.348e-5, -2.334e-5
0.100, -1.342e-5, -2.345e-5
0.099, -1.336e-5, -2.357e-5
0.098, -1.330e-5, -2.368e-5
0.097, -1.325e-5, -2.379e-5
0.096, -1.318e-5, -2.390e-5
0.095, -1.314e-5, -2.401e-5
0.094, -1.307e-5, -2.412e-5
0.093, -1.303e-5, -2.422e-5
0.092, -1.297e-5, -2.433e-5
0.091, -1.293e-5, -2.444e-5
0.090, -1.287e-5, -2.455e-5
0.089, -1.282e-5, -2.465e-5
0.088, -1.277e-5, -2.476e-5
0.087, -1.271e-5, -2.487e-5
0.086, -1.266e-5, -2.497e-5
0.085, -1.261e-5, -2.508e-5
0.084, -1.255e-5, -2.518e-5
0.083, -1.252e-5, -2.529e-5
0.082, -1.245e-5, -2.539e-5
0.081, -1.243e-5, -2.549e-5
0.080, -1.236e-5, -2.560e-5
0.079, -1.233e-5, -2.570e-5
0.078, -1.227e-5, -2.580e-5
0.077, -1.223e-5, -2.590e-5
0.076, -1.218e-5, -2.600e-5
0.075, -1.214e-5, -2.611e-5
0.074, -1.209e-5, -2.621e-5
0.073, -1.205e-5, -2.631e-5
0.072, -1.200e-5, -2.641e-5
0.071, -1.197e-5, -2.651e-5
0.070, -1.191e-5, -2.661e-5
0.069, -1.190e-5, -2.671e-5
0.068, -1.183e-5, -2.680e-5
0.067, -1.181e-5, -2.690e-5
0.066, -1.176e-5, -2.700e-5
0.065, -1.172e-5, -2.710e-5
0.064, -1.168e-5, -2.720e-5
0.063, -1.164e-5, -2.729e-5
0.062, -1.160e-5, -2.739e-5
0.061, -1.157e-5, -2.749e-5
0.060, -1.152e-5, -2.758e-5
0.059, -1.150e-5, -2.768e-5
0.058, -1.144e-5, -2.777e-5
0.057, -1.142e-5, -2.787e-5
0.056, -1.137e-5, -2.796e-5
0.055, -1.135e-5, -2.806e-5
0.054, -1.131e-5, -2.815e-5
0.053, -1.127e-5, -2.825e-5
0.052, -1.123e-5, -2.834e-5
0.051, -1.121e-5, -2.843e-5
0.050, -1.117e-5, -2.853e-5
0.049, -1.114e-5, -2.862e-5
0.048, -1.110e-5, -2.871e-5
0.047, -1.108e-5, -2.880e-5
0.046, -1.103e-5, -2.889e-5
0.045, -1.102e-5, -2.899e-5
0.044, -1.097e-5, -2.908e-5
0.043, -1.094e-5, -2.917e-5
0.042, -1.091e-5, -2.926e-5
0.041, -1.088e-5, -2.935e-5
0.040, -1.084e-5, -2.944e-5
0.039, -1.082e-5, -2.953e-5
0.038, -1.078e-5, -2.962e-5
0.037, -1.076e-5, -2.971e-5
0.036, -1.071e-5, -2.980e-5
0.035, -1.069e-5, -2.989e-5
0.034, -1.064e-5, -2.998e-5
0.033, -1.064e-5, -3.007e-5
0.032, -1.059e-5, -3.015e-5
0.031, -1.058e-5, -3.024e-5
0.030, -1.054e-5, -3.033e-5
0.029, -1.051e-5, -3.042e-5
0.028, -1.048e-5, -3.051e-5
0.027, -1.045e-5, -3.059e-5
0.026, -1.043e-5, -3.068e-5
0.025, -1.040e-5, -3.077e-5
0.024, -1.036e-5, -3.085e-5
0.023, -1.035e-5, -3.094e-5
0.022, -1.031e-5, -3.102e-5
0.021, -1.030e-5, -3.111e-5
0.020, -1.026e-5, -3.120e-5
0.019, -1.025e-5, -3.128e-5
0.018, -1.021e-5, -3.137e-5
0.017, -1.020e-5, -3.145e-5
0.016, -1.016e-5, -3.154e-5
0.015, -1.015e-5, -3.162e-5
0.014, -1.011e-5, -3.171e-5
0.013, -1.010e-5, -3.179e-5
0.012, -1.006e-5, -3.187e-5
0.011, -1.005e-5, -3.196e-5
0.010, -1.001e-5, -3.204e-5
0.009, -1.000e-5, -3.212e-5
0.008, -9.961e-6, -3.221e-5
0.007, -9.955e-6, -3.229e-5
0.006, -9.922e-6, -3.237e-5
0.005, -9.905e-6, -3.245e-5
0.004, -9.878e-6, -3.254e-5
0.003, -9.857e-6, -3.262e-5
0.002, -9.833e-6, -3.270e-5
0.001, -9.813e-6, -3.278e-5
-0.000, -9.794e-6, -3.286e-5
-0.001, -9.775e-6, -3.295e-5
-0.002, -9.744e-6, -3.303e-5
-0.003, -9.739e-6, -3.311e-5
-0.004, -9.698e-6, -3.319e-5
-0.005, -9.693e-6, -3.327e-5
-0.006, -9.660e-6, -3.335e-5
-0.007, -9.649e-6, -3.343e-5
-0.008, -9.620e-6, -3.351e-5
-0.009, -9.607e-6, -3.359e-5
-0.010, -9.575e-6, -3.367e-5
-0.011, -9.564e-6, -3.375e-5
-0.012, -9.531e-6, -3.383e-5
-0.013, -9.524e-6, -3.391e-5
-0.014, -9.492e-6, -3.399e-5
-0.015, -9.491e-6, -3.407e-5
-0.016, -9.456e-6, -3.415e-5
-0.017, -9.453e-6, -3.423e-5
-0.018, -9.419e-6, -3.430e-5
-0.019, -9.413e-6, -3.438e-5
-0.020, -9.386e-6, -3.446e-5
-0.021, -9.367e-6, -3.454e-5
-0.022, -9.351e-6, -3.462e-5
-0.023, -9.330e-6, -3.469e-5
-0.024, -9.299e-6, -3.477e-5
-0.025, -9.303e-6, -3.485e-5
-0.026, -9.264e-6, -3.493e-5
-0.027, -9.268e-6, -3.500e-5
-0.028, -9.225e-6, -3.508e-5
-0.029, -9.223e-6, -3.516e-5
-0.030, -9.197e-6, -3.523e-5
-0.031, -9.181e-6, -3.531e-5
-0.032, -9.168e-6, -3.539e-5
-0.033, -9.155e-6, -3.546e-5
-0.034, -9.124e-6, -3.554e-5
-0.035, -9.121e-6, -3.562e-5
-0.036, -9.081e-6, -3.569e-5
-0.037, -9.080e-6, -3.577e-5
-0.038, -9.054e-6, -3.584e-5
-0.039, -9.057e-6, -3.592e-5
-0.040, -9.020e-6, -3.599e-5
-0.041, -9.021e-6, -3.607e-5
-0.042, -8.987e-6, -3.614e-5
-0.043, -8.978e-6, -3.622e-5
-0.044, -8.966e-6, -3.629e-5
-0.045, -8.942e-6, -3.637e-5
-0.046, -8.926e-6, -3.644e-5
-0.047, -8.925e-6, -3.652e-5
-0.048, -8.886e-6, -3.659e-5
-0.049, -8.886e-6, -3.666e-5
-0.050, -8.765e-6, -3.674e-5

Segment 2:
-0.049, -8.645e-6, -3.681e-5
-0.048, -8.589e-6, -3.688e-5
-0.047, -8.568e-6, -3.695e-5
-0.046, -8.529e-6, -3.702e-5
-0.045, -8.499e-6, -3.709e-5
-0.044, -8.479e-6, -3.716e-5
-0.043, -8.448e-6, -3.723e-5
-0.042, -8.424e-6, -3.730e-5
-0.041, -8.405e-6, -3.737e-5
-0.040, -8.378e-6, -3.744e-5
-0.039, -8.363e-6, -3.751e-5
-0.038, -8.322e-6, -3.758e-5
-0.037, -8.328e-6, -3.765e-5
-0.036, -8.288e-6, -3.772e-5
-0.035, -8.279e-6, -3.779e-5
-0.034, -8.246e-6, -3.786e-5
-0.033, -8.238e-6, -3.793e-5
-0.032, -8.209e-6, -3.800e-5
-0.031, -8.195e-6, -3.807e-5
-0.030, -8.170e-6, -3.813e-5
-0.029, -8.153e-6, -3.820e-5
-0.028, -8.124e-6, -3.827e-5
-0.027, -8.121e-6, -3.834e-5
-0.026, -8.089e-6, -3.840e-5
-0.025, -8.092e-6, -3.847e-5
-0.024, -8.052e-6, -3.854e-5
-0.023, -8.048e-6, -3.861e-5
-0.022, -8.016e-6, -3.867e-5
-0.021, -8.002e-6, -3.874e-5
-0.020, -7.994e-6, -3.881e-5
-0.019, -7.970e-6, -3.887e-5
-0.018, -7.950e-6, -3.894e-5
-0.017, -7.945e-6, -3.900e-5
-0.016, -7.907e-6, -3.907e-5
-0.015, -7.906e-6, -3.914e-5
-0.014, -7.874e-6, -3.920e-5
-0.013, -7.880e-6, -3.927e-5
-0.012, -7.848e-6, -3.933e-5
-0.011, -7.846e-6, -3.940e-5
-0.010, -7.813e-6, -3.946e-5
-0.009, -7.805e-6, -3.953e-5
-0.008, -7.793e-6, -3.959e-5
-0.007, -7.770e-6, -3.966e-5
-0.006, -7.751e-6, -3.972e-5
-0.005, -7.747e-6, -3.979e-5
-0.004, -7.711e-6, -3.985e-5
-0.003, -7.712e-6, -3.992e-5
-0.002, -7.679e-6, -3.998e-5
-0.001, -7.689e-6, -4.004e-5
0.000, -7.652e-6, -4.011e-5
0.001, -7.656e-6, -4.017e-5
0.002, -7.623e-6, -4.024e-5
0.003, -7.613e-6, -4.030e-5
0.004, -7.604e-6, -4.036e-5
0.005, -7.587e-6, -4.043e-5
0.006, -7.556e-6, -4.049e-5
0.007, -7.555e-6, -4.055e-5
0.008, -7.515e-6, -4.061e-5
0.009, -7.517e-6, -4.068e-5
0.010, -7.488e-6, -4.074e-5
0.011, -7.499e-6, -4.080e-5
0.012, -7.461e-6, -4.086e-5
0.013, -7.462e-6, -4.093e-5
0.014, -7.436e-6, -4.099e-5
0.015, -7.423e-6, -4.105e-5
0.016, -7.414e-6, -4.111e-5
0.017, -7.402e-6, -4.117e-5
0.018, -7.381e-6, -4.123e-5
0.019, -7.369e-6, -4.130e-5
0.020, -7.346e-6, -4.136e-5
0.021, -7.359e-6, -4.142e-5
0.022, -7.316e-6, -4.148e-5
0.023, -7.319e-6, -4.154e-5
0.024, -7.293e-6, -4.160e-5
0.025, -7.291e-6, -4.166e-5
0.026, -7.268e-6, -4.172e-5
0.027, -7.266e-6, -4.178e-5
0.028, -7.245e-6, -4.184e-5
0.029, -7.230e-6, -4.190e-5
0.030, -7.218e-6, -4.196e-5
0.031, -7.217e-6, -4.202e-5
0.032, -7.186e-6, -4.208e-5
0.033, -7.185e-6, -4.214e-5
0.034, -7.156e-6, -4.220e-5
0.035, -7.167e-6, -4.226e-5
0.036, -7.127e-6, -4.232e-5
0.037, -7.124e-6, -4.238e-5
0.038, -7.111e-6, -4.244e-5
0.039, -7.100e-6, -4.250e-5
0.040, -7.084e-6, -4.256e-5
0.041, -7.073e-6, -4.262e-5
0.042, -7.056e-6, -4.268e-5
0.043, -7.052e-6, -4.274e-5
0.044, -7.025e-6, -4.279e-5
0.045, -7.024e-6, -4.285e-5
0.046, -6.999e-6, -4.291e-5
0.047, -7.003e-6, -4.297e-5
0.048, -6.973e-6, -4.303e-5
0.049, -6.973e-6, -4.309e-5
0.050, -6.945e-6, -4.314e-5
0.051, -6.936e-6, -4.320e-5
0.052, -6.926e-6, -4.326e-5
0.053, -6.916e-6, -4.332e-5
0.054, -6.894e-6, -4.337e-5
0.055, -6.889e-6, -4.343e-5
0.056, -6.871e-6, -4.349e-5
0.057, -6.874e-6, -4.355e-5
0.058, -6.834e-6, -4.360e-5
0.059, -6.840e-6, -4.366e-5
0.060, -6.820e-6, -4.372e-5
0.061, -6.818e-6, -4.377e-5
0.062, -6.791e-6, -4.383e-5
0.063, -6.781e-6, -4.389e-5
0.064, -6.769e-6, -4.394e-5
0.065, -6.751e-6, -4.400e-5
0.066, -6.736e-6, -4.406e-5
0.067, -6.731e-6, -4.411e-5
0.068, -6.711e-6, -4.417e-5
0.069, -6.710e-6, -4.422e-5
0.070, -6.679e-6, -4.428e-5
0.071, -6.682e-6, -4.433e-5
0.072, -6.656e-6, -4.439e-5
0.073, -6.645e-6, -4.445e-5
0.074, -6.633e-6, -4.450e-5
0.075, -6.626e-6, -4.456e-5
0.076, -6.607e-6, -4.461e-5
0.077, -6.589e-6, -4.467e-5
0.078, -6.576e-6, -4.472e-5
0.079, -6.574e-6, -4.478e-5
0.080, -6.537e-6, -4.483e-5
0.081, -6.538e-6, -4.488e-5
0.082, -6.507e-6, -4.494e-5
0.083, -6.515e-6, -4.499e-5
0.084, -6.486e-6, -4.505e-5
0.085, -6.484e-6, -4.510e-5
0.086, -6.459e-6, -4.516e-5
0.087, -6.442e-6, -4.521e-5
0.088, -6.436e-6, -4.526e-5
0.089, -6.418e-6, -4.532e-5
0.090, -6.396e-6, -4.537e-5
0.091, -6.390e-6, -4.542e-5
0.092, -6.363e-6, -4.548e-5
0.093, -6.358e-6, -4.553e-5
0.094, -6.333e-6, -4.558e-5
0.095, -6.336e-6, -4.563e-5
0.096, -6.300e-6, -4.569e-5
0.097, -6.291e-6, -4.574e-5
0.098, -6.277e-6, -4.579e-5
0.099, -6.248e-6, -4.584e-5
0.100, -6.243e-6, -4.590e-5
0.101, -6.223e-6, -4.595e-5
0.102, -6.196e-6, -4.600e-5
0.103, -6.192e-6, -4.605e-5
0.104, -6.150e-6, -4.610e-5
0.105, -6.152e-6, -4.615e-5
0.106, -6.113e-6, -4.620e-5
0.107, -6.116e-6, -4.625e-5
0.108, -6.085e-6, -4.631e-5
0.109, -6.079e-6, -4.636e-5
0.110, -6.047e-6, -4.641e-5
0.111, -6.040e-6, -4.646e-5
0.112, -6.008e-6, -4.651e-5
0.113, -5.998e-6, -4.656e-5
0.114, -5.961e-6, -4.661e-5
0.115, -5.954e-6, -4.666e-5
0.116, -5.921e-6, -4.671e-5
0.117, -5.916e-6, -4.675e-5
0.118, -5.868e-6, -4.680e-5
0.119, -5.865e-6, -4.685e-5
0.120, -5.831e-6, -4.690e-5
0.121, -5.810e-6, -4.695e-5
0.122, -5.785e-6, -4.700e-5
0.123, -5.759e-6, -4.705e-5
0.124, -5.738e-6, -4.709e-5
0.125, -5.712e-6, -4.714e-5
0.126, -5.674e-6, -4.719e-5
0.127, -5.659e-6, -4.724e-5
0.128, -5.614e-6, -4.728e-5
0.129, -5.608e-6, -4.733e-5
0.130, -5.557e-6, -4.738e-5
0.131, -5.551e-6, -4.742e-5
0.132, -5.501e-6, -4.747e-5
0.133, -5.474e-6, -4.751e-5
0.134, -5.443e-6, -4.756e-5
0.135, -5.411e-6, -4.760e-5
0.136, -5.370e-6, -4.765e-5
0.137, -5.340e-6, -4.769e-5
0.138, -5.299e-6, -4.774e-5
0.139, -5.269e-6, -4.778e-5
0.140, -5.217e-6, -4.782e-5
0.141, -5.200e-6, -4.787e-5
0.142, -5.139e-6, -4.791e-5
0.143, -5.118e-6, -4.795e-5
0.144, -5.063e-6, -4.800e-5
0.145, -5.023e-6, -4.804e-5
0.146, -4.974e-6, -4.808e-5
0.147, -4.926e-6, -4.812e-5
0.148, -4.885e-6, -4.816e-5
0.149, -4.840e-6, -4.820e-5
0.150, -4.779e-6, -4.824e-5
0.151, -4.743e-6, -4.828e-5
0.152, -4.679e-6, -4.832e-5
0.153, -4.640e-6, -4.836e-5
0.154, -4.560e-6, -4.840e-5
0.155, -4.529e-6, -4.843e-5
0.156, -4.451e-6, -4.847e-5
0.157, -4.384e-6, -4.851e-5
0.158, -4.321e-6, -4.854e-5
0.159, -4.255e-6, -4.858e-5
0.160, -4.190e-6, -4.861e-5
0.161, -4.122e-6, -4.865e-5
0.162, -4.048e-6, -4.868e-5
0.163, -3.994e-6, -4.872e-5
0.164, -3.898e-6, -4.875e-5
0.165, -3.845e-6, -4.878e-5
0.166, -3.744e-6, -4.881e-5
0.167, -3.677e-6, -4.884e-5
0.168, -3.588e-6, -4.887e-5
0.169, -3.498e-6, -4.890e-5
0.170, -3.418e-6, -4.893e-5
0.171, -3.324e-6, -4.896e-5
0.172, -3.233e-6, -4.898e-5
0.173, -3.140e-6, -4.901e-5
0.174, -3.025e-6, -4.903e-5
0.175, -2.947e-6, -4.906e-5
0.176, -2.815e-6, -4.908e-5
0.177, -2.737e-6, -4.911e-5
0.178, -2.602e-6, -4.913e-5
0.179, -2.505e-6, -4.915e-5
0.180, -2.381e-6, -4.917e-5
0.181, -2.256e-6, -4.919e-5
0.182, -2.137e-6, -4.920e-5
0.183, -2.003e-6, -4.922e-5
0.184, -1.875e-6, -4.924e-5
0.185, -1.752e-6, -4.925e-5
0.186, -1.594e-6, -4.927e-5
0.187, -1.472e-6, -4.928e-5
0.188, -1.293e-6, -4.929e-5
0.189, -1.171e-6, -4.930e-5
0.190, -9.903e-7, -4.931e-5
0.191, -8.523e-7, -4.931e-5
0.192, -6.881e-7, -4.932e-5
0.193, -5.072e-7, -4.932e-5
0.194, -3.506e-7, -4.933e-5
0.195, -1.618e-7, -4.933e-5
0.196, 4.043e-9, -4.933e-5
0.197, 1.935e-7, -4.933e-5
0.198, 4.182e-7, -4.932e-5
0.199, 5.815e-7, -4.932e-5
0.200, 8.223e-7, -4.931e-5
0.201, 9.816e-7, -4.930e-5
0.202, 1.216e-6, -4.929e-5
0.203, 1.413e-6, -4.928e-5
0.204, 1.634e-6, -4.927e-5
0.205, 1.848e-6, -4.925e-5
0.206, 2.079e-6, -4.923e-5
0.207, 2.316e-6, -4.921e-5
0.208, 2.549e-6, -4.919e-5
0.209, 2.790e-6, -4.917e-5
0.210, 3.057e-6, -4.914e-5
0.211, 3.278e-6, -4.912e-5
0.212, 3.591e-6, -4.909e-5
0.213, 3.802e-6, -4.906e-5
0.214, 4.114e-6, -4.902e-5
0.215, 4.373e-6, -4.899e-5
0.216, 4.643e-6, -4.895e-5
0.217, 4.949e-6, -4.891e-5
0.218, 5.233e-6, -4.886e-5
0.219, 5.536e-6, -4.882e-5
0.220, 5.826e-6, -4.877e-5
0.221, 6.128e-6, -4.872e-5
0.222, 6.479e-6, -4.866e-5
0.223, 6.734e-6, -4.861e-5
0.224, 7.108e-6, -4.855e-5
0.225, 7.388e-6, -4.849e-5
0.226, 7.745e-6, -4.842e-5
0.227, 8.077e-6, -4.835e-5
0.228, 8.417e-6, -4.828e-5
0.229, 8.776e-6, -4.821e-5
0.230, 9.101e-6, -4.813e-5
0.231, 9.467e-6, -4.806e-5
0.232, 9.814e-6, -4.797e-5
0.233, 1.016e-5, -4.789e-5
0.234, 1.055e-5, -4.780e-5
0.235, 1.088e-5, -4.771e-5
0.236, 1.131e-5, -4.762e-5
0.237, 1.164e-5, -4.752e-5
0.238, 1.205e-5, -4.742e-5
0.239, 1.242e-5, -4.732e-5
0.240, 1.280e-5, -4.721e-5
0.241, 1.321e-5, -4.710e-5
0.242, 1.357e-5, -4.699e-5
0.243, 1.397e-5, -4.687e-5
0.244, 1.439e-5, -4.675e-5
0.245, 1.475e-5, -4.663e-5
0.246, 1.520e-5, -4.650e-5
0.247, 1.554e-5, -4.637e-5
0.248, 1.600e-5, -4.624e-5
0.249, 1.634e-5, -4.610e-5
0.250, 1.678e-5, -4.596e-5
0.251, 1.717e-5, -4.582e-5
0.252, 1.757e-5, -4.567e-5
0.253, 1.800e-5, -4.552e-5
0.254, 1.837e-5, -4.537e-5
0.255, 1.880e-5, -4.521e-5
0.256, 1.918e-5, -4.505e-5
0.257, 1.956e-5, -4.489e-5
0.258, 2.000e-5, -4.472e-5
0.259, 2.034e-5, -4.455e-5
0.260, 2.082e-5, -4.438e-5
0.261, 2.113e-5, -4.420e-5
0.262, 2.156e-5, -4.402e-5
0.263, 2.193e-5, -4.384e-5
0.264, 2.231e-5, -4.365e-5
0.265, 2.271e-5, -4.347e-5
0.266, 2.306e-5, -4.327e-5
0.267, 2.344e-5, -4.308e-5
0.268, 2.381e-5, -4.288e-5
0.269, 2.414e-5, -4.268e-5
0.270, 2.455e-5, -4.247e-5
0.271, 2.484e-5, -4.227e-5
0.272, 2.526e-5, -4.206e-5
0.273, 2.555e-5, -4.184e-5
0.274, 2.592e-5, -4.163e-5
0.275, 2.625e-5, -4.141e-5
0.276, 2.655e-5, -4.119e-5
0.277, 2.688e-5, -4.096e-5
0.278, 2.717e-5, -4.074e-5
0.279, 2.748e-5, -4.051e-5
0.280, 2.776e-5, -4.028e-5
0.281, 2.803e-5, -4.004e-5
0.282, 2.835e-5, -3.981e-5
0.283, 2.855e-5, -3.957e-5
0.284, 2.887e-5, -3.933e-5
0.285, 2.906e-5, -3.909e-5
0.286, 2.934e-5, -3.884e-5
0.287, 2.954e-5, -3.860e-5
0.288, 2.977e-5, -3.835e-5
0.289, 3.002e-5, -3.810e-5
0.290, 3.019e-5, -3.785e-5
0.291, 3.041e-5, -3.759e-5
0.292, 3.058e-5, -3.734e-5
0.293, 3.072e-5, -3.708e-5
0.294, 3.094e-5, -3.682e-5
0.295, 3.104e-5, -3.656e-5
0.296, 3.123e-5, -3.630e-5
0.297, 3.133e-5, -3.604e-5
0.298, 3.148e-5, -3.578e-5
0.299, 3.157e-5, -3.552e-5
0.300, 3.167e-5, -3.525e-5
0.301, 3.179e-5, -3.499e-5
0.302, 3.186e-5, -3.472e-5
0.303, 3.194e-5, -3.446e-5
0.304, 3.199e-5, -3.419e-5
0.305, 3.203e-5, -3.392e-5
0.306, 3.212e-5, -3.366e-5
0.307, 3.212e-5, -3.339e-5
0.308, 3.219e-5, -3.312e-5
0.309, 3.216e-5, -3.285e-5
0.310, 3.220e-5, -3.258e-5
0.311, 3.219e-5, -3.232e-5
0.312, 3.217e-5, -3.205e-5
0.313, 3.218e-5, -3.178e-5
0.314, 3.214e-5, -3.151e-5
0.315, 3.213e-5, -3.124e-5
0.316, 3.209e-5, -3.098e-5
0.317, 3.201e-5, -3.071e-5
0.318, 3.200e-5, -3.044e-5
0.319, 3.189e-5, -3.018e-5
0.320, 3.188e-5, -2.991e-5
0.321, 3.176e-5, -2.965e-5
0.322, 3.171e-5, -2.938e-5
0.323, 3.162e-5, -2.912e-5
0.324, 3.152e-5, -2.886e-5
0.325, 3.144e-5, -2.859e-5
0.326, 3.133e-5, -2.833e-5
0.327, 3.123e-5, -2.807e-5
0.328, 3.111e-5, -2.781e-5
0.329, 3.098e-5, -2.756e-5
0.330, 3.089e-5, -2.730e-5
0.331, 3.074e-5, -2.704e-5
0.332, 3.065e-5, -2.679e-5
0.333, 3.048e-5, -2.653e-5
0.334, 3.037e-5, -2.628e-5
0.335, 3.023e-5, -2.603e-5
0.336, 3.009e-5, -2.578e-5
0.337, 2.995e-5, -2.553e-5
0.338, 2.980e-5, -2.528e-5
0.339, 2.965e-5, -2.503e-5
0.340, 2.950e-5, -2.479e-5
0.341, 2.934e-5, -2.454e-5
0.342, 2.921e-5, -2.430e-5
0.343, 2.903e-5, -2.406e-5
0.344, 2.891e-5, -2.382e-5
0.345, 2.872e-5, -2.358e-5
0.346, 2.860e-5, -2.334e-5
0.347, 2.843e-5, -2.310e-5
0.348, 2.827e-5, -2.286e-5
0.349, 2.811e-5, -2.263e-5
0.350, 2.795e-5, -2.240e-5
0.351, 2.780e-5, -2.217e-5
0.352, 2.765e-5, -2.194e-5
0.353, 2.748e-5, -2.171e-5
0.354, 2.735e-5, -2.148e-5
0.355, 2.715e-5, -2.125e-5
0.356, 2.704e-5, -2.103e-5
0.357, 2.684e-5, -2.080e-5
0.358, 2.671e-5, -2.058e-5
0.359, 2.653e-5, -2.036e-5
0.360, 2.639e-5, -2.014e-5
0.361, 2.624e-5, -1.992e-5
0.362, 2.609e-5, -1.970e-5
0.363, 2.593e-5, -1.949e-5
0.364, 2.578e-5, -1.927e-5
0.365, 2.562e-5, -1.906e-5
0.366, 2.549e-5, -1.885e-5
0.367, 2.532e-5, -1.864e-5
0.368, 2.519e-5, -1.843e-5
0.369, 2.501e-5, -1.822e-5
0.370, 2.489e-5, -1.801e-5
0.371, 2.473e-5, -1.780e-5
0.372, 2.459e-5, -1.760e-5
0.373, 2.445e-5, -1.740e-5
0.374, 2.431e-5, -1.719e-5
0.375, 2.418e-5, -1.699e-5
0.376, 2.404e-5, -1.679e-5
0.377, 2.390e-5, -1.659e-5
0.378, 2.378e-5, -1.639e-5
0.379, 2.361e-5, -1.620e-5
0.380, 2.351e-5, -1.600e-5
0.381, 2.335e-5, -1.581e-5
0.382, 2.325e-5, -1.561e-5
0.383, 2.310e-5, -1.542e-5
0.384, 2.299e-5, -1.523e-5
0.385, 2.286e-5, -1.504e-5
0.386, 2.274e-5, -1.485e-5
0.387, 2.261e-5, -1.466e-5
0.388, 2.250e-5, -1.447e-5
0.389, 2.237e-5, -1.429e-5
0.390, 2.227e-5, -1.410e-5
0.391, 2.213e-5, -1.392e-5
0.392, 2.204e-5, -1.373e-5
0.393, 2.190e-5, -1.355e-5
0.394, 2.181e-5, -1.337e-5
0.395, 2.167e-5, -1.319e-5
0.396, 2.158e-5, -1.301e-5
0.397, 2.146e-5, -1.283e-5
0.398, 2.136e-5, -1.265e-5
0.399, 2.125e-5, -1.247e-5
0.400, 2.115e-5, -1.230e-5
0.401, 2.104e-5, -1.212e-5
0.402, 2.095e-5, -1.195e-5
0.403, 2.083e-5, -1.177e-5
0.404, 2.075e-5, -1.160e-5
0.405, 2.062e-5, -1.143e-5
0.406, 2.055e-5, -1.126e-5
0.407, 2.042e-5, -1.109e-5
0.408, 2.034e-5, -1.092e-5
0.409, 2.024e-5, -1.075e-5
0.410, 2.015e-5, -1.058e-5
0.411, 2.005e-5, -1.042e-5
0.412, 1.996e-5, -1.025e-5
0.413, 1.987e-5, -1.008e-5
0.414, 1.979e-5, -9.918e-6
0.415, 1.969e-5, -9.754e-6
0.416, 1.962e-5, -9.591e-6
0.417, 1.950e-5, -9.428e-6
0.418, 1.945e-5, -9.266e-6
0.419, 1.934e-5, -9.105e-6
0.420, 1.927e-5, -8.944e-6
0.421, 1.918e-5, -8.784e-6
0.422, 1.910e-5, -8.625e-6
0.423, 1.902e-5, -8.467e-6
0.424, 1.895e-5, -8.309e-6
0.425, 1.886e-5, -8.152e-6
0.426, 1.880e-5, -7.995e-6
0.427, 1.870e-5, -7.839e-6
0.428, 1.864e-5, -7.684e-6
0.429, 1.854e-5, -7.529e-6
0.430, 1.850e-5, -7.375e-6
0.431, 1.840e-5, -7.222e-6
0.432, 1.834e-5, -7.069e-6
0.433, 1.826e-5, -6.917e-6
0.434, 1.820e-5, -6.765e-6
0.435, 1.812e-5, -6.614e-6
0.436, 1.805e-5, -6.464e-6
0.437, 1.798e-5, -6.314e-6
0.438, 1.792e-5, -6.165e-6
0.439, 1.783e-5, -6.016e-6
0.440, 1.779e-5, -5.868e-6
0.441, 1.770e-5, -5.720e-6
0.442, 1.766e-5, -5.573e-6
0.443, 1.757e-5, -5.427e-6
0.444, 1.752e-5, -5.281e-6
0.445, 1.744e-5, -5.135e-6
0.446, 1.738e-5, -4.991e-6
0.447, 1.731e-5, -4.846e-6
0.448, 1.725e-5, -4.702e-6
0.449, 1.719e-5, -4.559e-6
0.450, 1.714e-5, -4.416e-6
0.451, 1.706e-5, -4.274e-6
0.452, 1.702e-5, -4.132e-6
0.453, 1.694e-5, -3.991e-6
0.454, 1.690e-5, -3.850e-6
0.455, 1.683e-5, -3.710e-6
0.456, 1.679e-5, -3.570e-6
0.457, 1.672e-5, -3.431e-6
0.458, 1.667e-5, -3.292e-6
0.459, 1.661e-5, -3.153e-6
0.460, 1.656e-5, -3.015e-6
0.461, 1.650e-5, -2.878e-6
0.462, 1.646e-5, -2.741e-6
0.463, 1.639e-5, -2.604e-6
0.464, 1.636e-5, -2.468e-6
0.465, 1.627e-5, -2.332e-6
0.466, 1.626e-5, -2.197e-6
0.467, 1.618e-5, -2.062e-6
0.468, 1.614e-5, -1.927e-6
0.469, 1.608e-5, -1.794e-6
0.470, 1.604e-5, -1.660e-6
0.471, 1.598e-5, -1.527e-6
0.472, 1.594e-5, -1.394e-6
0.473, 1.588e-5, -1.261e-6
0.474, 1.585e-5, -1.129e-6
0.475, 1.578e-5, -9.978e-7
0.476, 1.576e-5, -8.664e-7
0.477, 1.568e-5, -7.358e-7
0.478, 1.567e-5, -6.052e-7
0.479, 1.559e-5, -4.753e-7
0.480, 1.557e-5, -3.455e-7
0.481, 1.551e-5, -2.163e-7
0.482, 1.548e-5, -8.730e-8
0.483, 1.542e-5, 4.121e-8
0.484, 1.539e-5, 1.694e-7
0.485, 1.534e-5, 2.972e-7
0.486, 1.530e-5, 4.247e-7
0.487, 1.524e-5, 5.517e-7
0.488, 1.522e-5, 6.786e-7
0.489, 1.515e-5, 8.048e-7
0.490, 1.514e-5, 9.310e-7
0.491, 1.507e-5, 1.057e-6
0.492, 1.505e-5, 1.182e-6
0.493, 1.500e-5, 1.307e-6
0.494, 1.497e-5, 1.432e-6
0.495, 1.492e-5, 1.556e-6
0.496, 1.488e-5, 1.680e-6
0.497, 1.484e-5, 1.804e-6
0.498, 1.481e-5, 1.927e-6
0.499, 1.475e-5, 2.050e-6
0.500, 1.463e-5, 2.172e-6

Segment 3:
0.499, 1.438e-5, 2.292e-6
0.498, 1.431e-5, 2.411e-6
0.497, 1.420e-5, 2.529e-6
0.496, 1.414e-5, 2.647e-6
0.495, 1.407e-5, 2.764e-6
0.494, 1.401e-5, 2.881e-6
0.493, 1.395e-5, 2.997e-6
0.492, 1.389e-5, 3.113e-6
0.491, 1.383e-5, 3.228e-6
0.490, 1.379e-5, 3.343e-6
0.489, 1.373e-5, 3.458e-6
0.488, 1.369e-5, 3.572e-6
0.487, 1.362e-5, 3.685e-6
0.486, 1.359e-5, 3.798e-6
0.485, 1.353e-5, 3.911e-6
0.484, 1.349e-5, 4.024e-6
0.483, 1.343e-5, 4.136e-6
0.482, 1.339e-5, 4.247e-6
0.481, 1.334e-5, 4.358e-6
0.480, 1.330e-5, 4.469e-6
0.479, 1.325e-5, 4.580e-6
0.478, 1.322e-5, 4.690e-6
0.477, 1.315e-5, 4.799e-6
0.476, 1.314e-5, 4.909e-6
0.475, 1.307e-5, 5.018e-6
0.474, 1.305e-5, 5.127e-6
0.473, 1.299e-5, 5.235e-6
0.472, 1.296e-5, 5.343e-6
0.471, 1.292e-5, 5.451e-6
0.470, 1.288e-5, 5.558e-6
0.469, 1.284e-5, 5.665e-6
0.468, 1.280e-5, 5.772e-6
0.467, 1.275e-5, 5.878e-6
0.466, 1.273e-5, 5.984e-6
0.465, 1.266e-5, 6.089e-6
0.464, 1.265e-5, 6.195e-6
0.463, 1.259e-5, 6.300e-6
0.462, 1.257e-5, 6.405e-6
0.461, 1.251e-5, 6.509e-6
0.460, 1.249e-5, 6.613e-6
0.459, 1.244e-5, 6.717e-6
0.458, 1.241e-5, 6.820e-6
0.457, 1.237e-5, 6.923e-6
0.456, 1.234e-5, 7.026e-6
0.455, 1.230e-5, 7.128e-6
0.454, 1.227e-5, 7.231e-6
0.453, 1.222e-5, 7.332e-6
0.452, 1.220e-5, 7.434e-6
0.451, 1.215e-5, 7.535e-6
0.450, 1.212e-5, 7.636e-6
0.449, 1.207e-5, 7.737e-6
0.448, 1.206e-5, 7.837e-6
0.447, 1.201e-5, 7.938e-6
0.446, 1.198e-5, 8.037e-6
0.445, 1.194e-5, 8.137e-6
0.444, 1.191e-5, 8.236e-6
0.443, 1.187e-5, 8.335e-6
0.442, 1.185e-5, 8.434e-6
0.441, 1.179e-5, 8.532e-6
0.440, 1.178e-5, 8.630e-6
0.439, 1.172e-5, 8.728e-6
0.438, 1.171e-5, 8.826e-6
0.437, 1.166e-5, 8.923e-6
0.436, 1.164e-5, 9.020e-6
0.435, 1.159e-5, 9.116e-6
0.434, 1.157e-5, 9.213e-6
0.433, 1.153e-5, 9.309e-6
0.432, 1.150e-5, 9.405e-6
0.431, 1.146e-5, 9.500e-6
0.430, 1.144e-5, 9.595e-6
0.429, 1.138e-5, 9.690e-6
0.428, 1.138e-5, 9.785e-6
0.427, 1.132e-5, 9.879e-6
0.426, 1.130e-5, 9.974e-6
0.425, 1.125e-5, 1.007e-5
0.424, 1.123e-5, 1.016e-5
0.423, 1.118e-5, 1.025e-5
0.422, 1.115e-5, 1.035e-5
0.421, 1.111e-5, 1.044e-5
0.420, 1.108e-5, 1.053e-5
0.419, 1.104e-5, 1.062e-5
0.418, 1.101e-5, 1.072e-5
0.417, 1.096e-5, 1.081e-5
0.416, 1.094e-5, 1.090e-5
0.415, 1.089e-5, 1.099e-5
0.414, 1.087e-5, 1.108e-5
0.413, 1.082e-5, 1.117e-5
0.412, 1.080e-5, 1.126e-5
0.411, 1.075e-5, 1.135e-5
0.410, 1.072e-5, 1.144e-5
0.409, 1.069e-5, 1.153e-5
0.408, 1.065e-5, 1.162e-5
0.407, 1.060e-5, 1.170e-5
0.406, 1.059e-5, 1.179e-5
0.405, 1.052e-5, 1.188e-5
0.404, 1.051e-5, 1.197e-5
0.403, 1.045e-5, 1.206e-5
0.402, 1.043e-5, 1.214e-5
0.401, 1.037e-5, 1.223e-5
0.400, 1.034e-5, 1.231e-5
0.399, 1.030e-5, 1.240e-5
0.398, 1.026e-5, 1.249e-5
0.397, 1.021e-5, 1.257e-5
0.396, 1.018e-5, 1.266e-5
0.395, 1.012e-5, 1.274e-5
0.394, 1.010e-5, 1.282e-5
0.393, 1.003e-5, 1.291e-5
0.392, 1.002e-5, 1.299e-5
0.391, 9.944e-6, 1.307e-5
0.390, 9.922e-6, 1.316e-5
0.389, 9.865e-6, 1.324e-5
0.388, 9.826e-6, 1.332e-5
0.387, 9.775e-6, 1.340e-5
0.386, 9.727e-6, 1.348e-5
0.385, 9.676e-6, 1.356e-5
0.384, 9.637e-6, 1.364e-5
0.383, 9.572e-6, 1.372e-5
0.382, 9.534e-6, 1.380e-5
0.381, 9.460e-6, 1.388e-5
0.380, 9.435e-6, 1.396e-5
0.379, 9.350e-6, 1.404e-5
0.378, 9.324e-6, 1.412e-5
0.377, 9.244e-6, 1.419e-5
0.376, 9.198e-6, 1.427e-5
0.375, 9.139e-6, 1.435e-5
0.374, 9.081e-6, 1.442e-5
0.373, 9.026e-6, 1.450e-5
0.372, 8.960e-6, 1.457e-5
0.371, 8.886e-6, 1.465e-5
0.370, 8.846e-6, 1.472e-5
0.369, 8.751e-6, 1.479e-5
0.368, 8.712e-6, 1.487e-5
0.367, 8.616e-6, 1.494e-5
0.366, 8.563e-6, 1.501e-5
0.365, 8.483e-6, 1.508e-5
0.364, 8.414e-6, 1.515e-5
0.363, 8.330e-6, 1.522e-5
0.362, 8.257e-6, 1.529e-5
0.361, 8.183e-6, 1.536e-5
0.360, 8.104e-6, 1.542e-5
0.359, 7.992e-6, 1.549e-5
0.358, 7.932e-6, 1.556e-5
0.357, 7.817e-6, 1.562e-5
0.356, 7.760e-6, 1.569e-5
0.355, 7.640e-6, 1.575e-5
0.354, 7.571e-6, 1.581e-5
0.353, 7.460e-6, 1.587e-5
0.352, 7.360e-6, 1.594e-5
0.351, 7.264e-6, 1.600e-5
0.350, 7.165e-6, 1.606e-5
0.349, 7.059e-6, 1.612e-5
0.348, 6.954e-6, 1.617e-5
0.347, 6.821e-6, 1.623e-5
0.346, 6.739e-6, 1.629e-5
0.345, 6.590e-6, 1.634e-5
0.344, 6.502e-6, 1.640e-5
0.343, 6.353e-6, 1.645e-5
0.342, 6.238e-6, 1.650e-5
0.341, 6.107e-6, 1.655e-5
0.340, 5.973e-6, 1.660e-5
0.339, 5.839e-6, 1.665e-5
0.338, 5.695e-6, 1.670e-5
0.337, 5.558e-6, 1.674e-5
0.336, 5.425e-6, 1.679e-5
0.335, 5.248e-6, 1.683e-5
0.334, 5.123e-6, 1.688e-5
0.333, 4.925e-6, 1.692e-5
0.332, 4.791e-6, 1.696e-5
0.331, 4.600e-6, 1.699e-5
0.330, 4.442e-6, 1.703e-5
0.329, 4.263e-6, 1.707e-5
0.328, 4.081e-6, 1.710e-5
0.327, 3.904e-6, 1.713e-5
0.326, 3.715e-6, 1.716e-5
0.325, 3.530e-6, 1.719e-5
0.324, 3.340e-6, 1.722e-5
0.323, 3.109e-6, 1.725e-5
0.322, 2.939e-6, 1.727e-5
0.321, 2.691e-6, 1.729e-5
0.320, 2.521e-6, 1.732e-5
0.319, 2.259e-6, 1.733e-5
0.318, 2.058e-6, 1.735e-5
0.317, 1.825e-6, 1.737e-5
0.316, 1.569e-6, 1.738e-5
0.315, 1.352e-6, 1.739e-5
0.314, 1.089e-6, 1.740e-5
0.313, 8.448e-7, 1.741e-5
0.312, 6.102e-7, 1.741e-5
0.311, 3.113e-7, 1.741e-5
0.310, 7.879e-8, 1.742e-5
0.309, -2.371e-7, 1.741e-5
0.308, -4.739e-7, 1.741e-5
0.307, -7.822e-7, 1.740e-5
0.306, -1.071e-6, 1.739e-5
0.305, -1.343e-6, 1.738e-5
0.304, -1.673e-6, 1.737e-5
0.303, -1.937e-6, 1.735e-5
0.302, -2.263e-6, 1.733e-5
0.301, -2.572e-6, 1.731e-5
0.300, -2.871e-6, 1.729e-5
0.299, -3.226e-6, 1.726e-5
0.298, -3.499e-6, 1.723e-5
0.297, -3.876e-6, 1.720e-5
0.296, -4.162e-6, 1.717e-5
0.295, -4.543e-6, 1.713e-5
0.294, -4.882e-6, 1.709e-5
0.293, -5.212e-6, 1.704e-5
0.292, -5.586e-6, 1.700e-5
0.291, -5.907e-6, 1.695e-5
0.290, -6.292e-6, 1.690e-5
0.289, -6.650e-6, 1.684e-5
0.288, -6.991e-6, 1.678e-5
0.287, -7.411e-6, 1.672e-5
0.286, -7.741e-6, 1.666e-5
0.285, -8.171e-6, 1.659e-5
0.284, -8.508e-6, 1.652e-5
0.283, -8.910e-6, 1.644e-5
0.282, -9.310e-6, 1.636e-5
0.281, -9.663e-6, 1.628e-5
0.280, -1.009e-5, 1.620e-5
0.279, -1.044e-5, 1.611e-5
0.278, -1.088e-5, 1.602e-5
0.277, -1.127e-5, 1.593e-5
0.276, -1.164e-5, 1.583e-5
0.275, -1.209e-5, 1.573e-5
0.274, -1.244e-5, 1.563e-5
0.273, -1.290e-5, 1.552e-5
0.272, -1.326e-5, 1.541e-5
0.271, -1.368e-5, 1.530e-5
0.270, -1.408e-5, 1.518e-5
0.269, -1.447e-5, 1.506e-5
0.268, -1.490e-5, 1.493e-5
0.267, -1.526e-5, 1.481e-5
0.266, -1.569e-5, 1.468e-5
0.265, -1.609e-5, 1.454e-5
0.264, -1.646e-5, 1.440e-5
0.263, -1.691e-5, 1.426e-5
0.262, -1.726e-5, 1.412e-5
0.261, -1.771e-5, 1.397e-5
0.260, -1.805e-5, 1.382e-5
0.259, -1.846e-5, 1.367e-5
0.258, -1.884e-5, 1.351e-5
0.257, -1.919e-5, 1.335e-5
0.256, -1.960e-5, 1.319e-5
0.255, -1.994e-5, 1.302e-5
0.254, -2.033e-5, 1.285e-5
0.253, -2.070e-5, 1.268e-5
0.252, -2.103e-5, 1.250e-5
0.251, -2.143e-5, 1.233e-5
0.250, -2.173e-5, 1.214e-5
0.249, -2.212e-5, 1.196e-5
0.248, -2.242e-5, 1.177e-5
0.247, -2.277e-5, 1.158e-5
0.246, -2.308e-5, 1.139e-5
0.245, -2.339e-5, 1.120e-5
0.244, -2.371e-5, 1.100e-5
0.243, -2.399e-5, 1.080e-5
0.242, -2.430e-5, 1.060e-5
0.241, -2.459e-5, 1.039e-5
0.240, -2.485e-5, 1.018e-5
0.239, -2.517e-5, 9.974e-6
0.238, -2.539e-5, 9.763e-6
0.237, -2.568e-5, 9.549e-6
0.236, -2.588e-5, 9.333e-6
0.235, -2.613e-5, 9.115e-6
0.234, -2.639e-5, 8.895e-6
0.233, -2.658e-5, 8.674e-6
0.232, -2.682e-5, 8.450e-6
0.231, -2.698e-5, 8.226e-6
0.230, -2.718e-5, 7.999e-6
0.229, -2.736e-5, 7.771e-6
0.228, -2.751e-5, 7.542e-6
0.227, -2.771e-5, 7.311e-6
0.226, -2.782e-5, 7.079e-6
0.225, -2.800e-5, 6.846e-6
0.224, -2.811e-5, 6.611e-6
0.223, -2.824e-5, 6.376e-6
0.222, -2.836e-5, 6.140e-6
0.221, -2.842e-5, 5.903e-6
0.220, -2.856e-5, 5.665e-6
0.219, -2.861e-5, 5.427e-6
0.218, -2.870e-5, 5.187e-6
0.217, -2.876e-5, 4.948e-6
0.216, -2.879e-5, 4.708e-6
0.215, -2.889e-5, 4.467e-6
0.214, -2.889e-5, 4.226e-6
0.213, -2.895e-5, 3.985e-6
0.212, -2.893e-5, 3.744e-6
0.211, -2.896e-5, 3.503e-6
0.210, -2.897e-5, 3.261e-6
0.209, -2.894e-5, 3.020e-6
0.208, -2.895e-5, 2.779e-6
0.207, -2.891e-5, 2.538e-6
0.206, -2.890e-5, 2.297e-6
0.205, -2.884e-5, 2.057e-6
0.204, -2.877e-5, 1.817e-6
0.203, -2.875e-5, 1.577e-6
0.202, -2.867e-5, 1.338e-6
0.201, -2.865e-5, 1.100e-6
0.200, -2.854e-5, 8.619e-7
0.199, -2.849e-5, 6.245e-7
0.198, -2.841e-5, 3.877e-7
0.197, -2.831e-5, 1.518e-7
0.196, -2.824e-5, -8.350e-8
0.195, -2.812e-5, -3.178e-7
0.194, -2.803e-5, -5.514e-7
0.193, -2.792e-5, -7.841e-7
0.192, -2.780e-5, -1.016e-6
0.191, -2.771e-5, -1.247e-6
0.190, -2.755e-5, -1.476e-6
0.189, -2.746e-5, -1.705e-6
0.188, -2.731e-5, -1.933e-6
0.187, -2.721e-5, -2.159e-6
0.186, -2.706e-5, -2.385e-6
0.185, -2.692e-5, -2.609e-6
0.184, -2.680e-5, -2.833e-6
0.183, -2.665e-5, -3.055e-6
0.182, -2.653e-5, -3.276e-6
0.181, -2.638e-5, -3.496e-6
0.180, -2.622e-5, -3.714e-6
0.179, -2.609e-5, -3.932e-6
0.178, -2.592e-5, -4.148e-6
0.177, -2.580e-5, -4.363e-6
0.176, -2.563e-5, -4.576e-6
0.175, -2.550e-5, -4.789e-6
0.174, -2.535e-5, -5.000e-6
0.173, -2.519e-5, -5.210e-6
0.172, -2.505e-5, -5.418e-6
0.171, -2.488e-5, -5.626e-6
0.170, -2.473e-5, -5.832e-6
0.169, -2.457e-5, -6.037e-6
0.168, -2.441e-5, -6.240e-6
0.167, -2.428e-5, -6.442e-6
0.166, -2.411e-5, -6.643e-6
0.165, -2.398e-5, -6.843e-6
0.164, -2.381e-5, -7.042e-6
0.163, -2.368e-5, -7.239e-6
0.162, -2.352e-5, -7.435e-6
0.161, -2.337e-5, -7.630e-6
0.160, -2.322e-5, -7.823e-6
0.159, -2.307e-5, -8.016e-6
0.158, -2.293e-5, -8.207e-6
0.157, -2.279e-5, -8.397e-6
0.156, -2.264e-5, -8.585e-6
0.155, -2.251e-5, -8.773e-6
0.154, -2.235e-5, -8.959e-6
0.153, -2.223e-5, -9.144e-6
0.152, -2.207e-5, -9.328e-6
0.151, -2.195e-5, -9.511e-6
0.150, -2.181e-5, -9.693e-6
0.149, -2.167e-5, -9.874e-6
0.148, -2.154e-5, -1.005e-5
0.147, -2.140e-5, -1.023e-5
0.146, -2.127e-5, -1.041e-5
0.145, -2.115e-5, -1.058e-5
0.144, -2.101e-5, -1.076e-5
0.143, -2.090e-5, -1.093e-5
0.142, -2.075e-5, -1.111e-5
0.141, -2.065e-5, -1.128e-5
0.140, -2.050e-5, -1.145e-5
0.139, -2.040e-5, -1.162e-5
0.138, -2.026e-5, -1.179e-5
0.137, -2.015e-5, -1.196e-5
0.136, -2.001e-5, -1.212e-5
0.135, -1.990e-5, -1.229e-5
0.134, -1.979e-5, -1.245e-5
0.133, -1.967e-5, -1.262e-5
0.132, -1.955e-5, -1.278e-5
0.131, -1.945e-5, -1.294e-5
0.130, -1.932e-5, -1.310e-5
0.129, -1.924e-5, -1.326e-5
0.128, -1.911e-5, -1.342e-5
0.127, -1.902e-5, -1.358e-5
0.126, -1.890e-5, -1.374e-5
0.125, -1.880e-5, -1.390e-5
0.124, -1.869e-5, -1.405e-5
0.123, -1.859e-5, -1.421e-5
0.122, -1.849e-5, -1.436e-5
0.121, -1.840e-5, -1.451e-5
0.120, -1.829e-5, -1.467e-5
0.119, -1.821e-5, -1.482e-5
0.118, -1.809e-5, -1.497e-5
0.117, -1.802e-5, -1.512e-5
0.116, -1.790e-5, -1.527e-5
0.115, -1.783e-5, -1.542e-5
0.114, -1.772e-5, -1.557e-5
0.113, -1.764e-5, -1.571e-5
0.112, -1.755e-5, -1.586e-5
0.111, -1.746e-5, -1.600e-5
0.110, -1.737e-5, -1.615e-5
0.109, -1.729e-5, -1.629e-5
0.108, -1.720e-5, -1.644e-5
0.107, -1.712e-5, -1.658e-5
0.106, -1.702e-5, -1.672e-5
0.105, -1.695e-5, -1.686e-5
0.104, -1.684e-5, -1.700e-5
0.103, -1.678e-5, -1.714e-5
0.102, -1.669e-5, -1.728e-5
0.101, -1.662e-5, -1.742e-5
0.100, -1.653e-5, -1.756e-5
0.099, -1.646e-5, -1.769e-5
0.098, -1.639e-5, -1.783e-5
0.097, -1.631e-5, -1.797e-5
0.096, -1.623e-5, -1.810e-5
0.095, -1.617e-5, -1.824e-5
0.094, -1.608e-5, -1.837e-5
0.093, -1.603e-5, -1.850e-5
0.092, -1.593e-5, -1.864e-5
0.091, -1.588e-5, -1.877e-5
0.090, -1.580e-5, -1.890e-5
0.089, -1.574e-5, -1.903e-5
0.088, -1.567e-5, -1.916e-5
0.087, -1.560e-5, -1.929e-5
0.086, -1.553e-5, -1.942e-5
0.085, -1.547e-5, -1.955e-5
0.084, -1.540e-5, -1.968e-5
0.083, -1.534e-5, -1.981e-5
0.082, -1.526e-5, -1.993e-5
0.081, -1.521e-5, -2.006e-5
0.080, -1.513e-5, -2.019e-5
0.079, -1.508e-5, -2.031e-5
0.078, -1.502e-5, -2.044e-5
0.077, -1.496e-5, -2.056e-5
0.076, -1.490e-5, -2.069e-5
0.075, -1.484e-5, -2.081e-5
0.074, -1.478e-5, -2.093e-5
0.073, -1.472e-5, -2.106e-5
0.072, -1.466e-5, -2.118e-5
0.071, -1.462e-5, -2.130e-5
0.070, -1.454e-5, -2.142e-5
0.069, -1.450e-5, -2.154e-5
0.068, -1.444e-5, -2.166e-5
0.067, -1.440e-5, -2.178e-5
0.066, -1.433e-5, -2.190e-5
0.065, -1.429e-5, -2.202e-5
0.064, -1.423e-5, -2.214e-5
0.063, -1.418e-5, -2.226e-5
0.062, -1.413e-5, -2.238e-5
0.061, -1.407e-5, -2.249e-5
0.060, -1.402e-5, -2.261e-5
0.059, -1.397e-5, -2.273e-5
0.058, -1.391e-5, -2.284e-5
0.057, -1.388e-5, -2.296e-5
0.056, -1.380e-5, -2.307e-5
0.055, -1.377e-5, -2.319e-5
0.054, -1.371e-5, -2.330e-5
0.053, -1.367e-5, -2.342e-5
0.052, -1.361e-5, -2.353e-5
0.051, -1.357e-5, -2.364e-5
0.050, -1.353e-5, -2.376e-5
0.049, -1.348e-5, -2.387e-5
0.048, -1.343e-5, -2.398e-5
0.047, -1.339e-5, -2.409e-5
0.046, -1.334e-5, -2.420e-5
0.045, -1.331e-5, -2.431e-5
0.044, -1.326e-5, -2.442e-5
0.043, -1.322e-5, -2.453e-5
0.042, -1.317e-5, -2.464e-5
0.041, -1.313e-5, -2.475e-5
0.040, -1.308e-5, -2.486e-5
0.039, -1.304e-5, -2.497e-5
0.038, -1.300e-5, -2.508e-5
0.037, -1.296e-5, -2.519e-5
0.036, -1.292e-5, -2.529e-5
0.035, -1.288e-5, -2.540e-5
0.034, -1.283e-5, -2.551e-5
0.033, -1.281e-5, -2.562e-5
0.032, -1.275e-5, -2.572e-5
0.031, -1.273e-5, -2.583e-5
0.030, -1.269e-5, -2.593e-5
0.029, -1.265e-5, -2.604e-5
0.028, -1.260e-5, -2.614e-5
0.027, -1.257e-5, -2.625e-5
0.026, -1.254e-5, -2.635e-5
0.025, -1.250e-5, -2.646e-5
0.024, -1.245e-5, -2.656e-5
0.023, -1.243e-5, -2.667e-5
0.022, -1.238e-5, -2.677e-5
0.021, -1.236e-5, -2.687e-5
0.020, -1.230e-5, -2.697e-5
0.019, -1.229e-5, -2.708e-5
0.018, -1.223e-5, -2.718e-5
0.017, -1.220e-5, -2.728e-5
0.016, -1.216e-5, -2.738e-5
0.015, -1.214e-5, -2.748e-5
0.014, -1.210e-5, -2.758e-5
0.013, -1.207e-5, -2.768e-5
0.012, -1.202e-5, -2.778e-5
0.011, -1.201e-5, -2.788e-5
0.010, -1.196e-5, -2.798e-5
0.009, -1.195e-5, -2.808e-5
0.008, -1.190e-5, -2.818e-5
0.007, -1.188e-5, -2.828e-5
0.006, -1.183e-5, -2.838e-5
0.005, -1.181e-5, -2.848e-5
0.004, -1.177e-5, -2.858e-5
0.003, -1.176e-5, -2.867e-5
0.002, -1.171e-5, -2.877e-5
0.001, -1.169e-5, -2.887e-5
0.000, -1.166e-5, -2.897e-5
-0.001, -1.163e-5, -2.906e-5
-0.002, -1.159e-5, -2.916e-5
-0.003, -1.157e-5, -2.926e-5
-0.004, -1.152e-5, -2.935e-5
-0.005, -1.152e-5, -2.945e-5
-0.006, -1.147e-5, -2.954e-5
-0.007, -1.146e-5, -2.964e-5
-0.008, -1.142e-5, -2.973e-5
-0.009, -1.139e-5, -2.983e-5
-0.010, -1.137e-5, -2.992e-5
-0.011, -1.134e-5, -3.002e-5
-0.012, -1.131e-5, -3.011e-5
-0.013, -1.128e-5, -3.021e-5
-0.014, -1.124e-5, -3.030e-5
-0.015, -1.123e-5, -3.039e-5
-0.016, -1.119e-5, -3.049e-5
-0.017, -1.118e-5, -3.058e-5
-0.018, -1.114e-5, -3.067e-5
-0.019, -1.112e-5, -3.077e-5
-0.020, -1.109e-5, -3.086e-5
-0.021, -1.107e-5, -3.095e-5
-0.022, -1.104e-5, -3.104e-5
-0.023, -1.102e-5, -3.113e-5
-0.024, -1.098e-5, -3.123e-5
-0.025, -1.098e-5, -3.132e-5
-0.026, -1.093e-5, -3.141e-5
-0.027, -1.093e-5, -3.150e-5
-0.028, -1.088e-5, -3.159e-5
-0.029, -1.088e-5, -3.168e-5
-0.030, -1.083e-5, -3.177e-5
-0.031, -1.083e-5, -3.186e-5
-0.032, -1.079e-5, -3.195e-5
-0.033, -1.078e-5, -3.204e-5
-0.034, -1.074e-5, -3.213e-5
-0.035, -1.073e-5, -3.222e-5
-0.036, -1.068e-5, -3.231e-5
-0.037, -1.068e-5, -3.240e-5
-0.038, -1.063e-5, -3.249e-5
-0.039, -1.063e-5, -3.258e-5
-0.040, -1.058e-5, -3.266e-5
-0.041, -1.059e-5, -3.275e-5
-0.042, -1.054e-5, -3.284e-5
-0.043, -1.053e-5, -3.293e-5
-0.044, -1.050e-5, -3.302e-5
-0.045, -1.049e-5, -3.310e-5
-0.046, -1.045e-5, -3.319e-5
-0.047, -1.044e-5, -3.328e-5
-0.048, -1.041e-5, -3.336e-5
-0.049, -1.040e-5, -3.345e-5
-0.050, -1.027e-5, -3.354e-5

Segment 4:
-0.049, -1.015e-5, -3.362e-5
-0.048, -1.007e-5, -3.370e-5
-0.047, -1.005e-5, -3.379e-5
-0.046, -9.999e-6, -3.387e-5
-0.045, -9.973e-6, -3.395e-5
-0.044, -9.935e-6, -3.404e-5
-0.043, -9.905e-6, -3.412e-5
-0.042, -9.867e-6, -3.420e-5
-0.041, -9.851e-6, -3.428e-5
-0.040, -9.808e-6, -3.437e-5
-0.039, -9.799e-6, -3.445e-5
-0.038, -9.754e-6, -3.453e-5
-0.037, -9.741e-6, -3.461e-5
-0.036, -9.692e-6, -3.469e-5
-0.035, -9.689e-6, -3.477e-5
-0.034, -9.647e-6, -3.485e-5
-0.033, -9.619e-6, -3.493e-5
-0.032, -9.598e-6, -3.501e-5
-0.031, -9.568e-6, -3.509e-5
-0.030, -9.551e-6, -3.517e-5
-0.029, -9.523e-6, -3.525e-5
-0.028, -9.490e-6, -3.533e-5
-0.027, -9.475e-6, -3.541e-5
-0.026, -9.444e-6, -3.549e-5
-0.025, -9.433e-6, -3.557e-5
-0.024, -9.397e-6, -3.564e-5
-0.023, -9.381e-6, -3.572e-5
-0.022, -9.356e-6, -3.580e-5
-0.021, -9.333e-6, -3.588e-5
-0.020, -9.304e-6, -3.596e-5
-0.019, -9.279e-6, -3.603e-5
-0.018, -9.263e-6, -3.611e-5
-0.017, -9.243e-6, -3.619e-5
-0.016, -9.216e-6, -3.626e-5
-0.015, -9.209e-6, -3.634e-5
-0.014, -9.170e-6, -3.642e-5
-0.013, -9.168e-6, -3.649e-5
-0.012, -9.116e-6, -3.657e-5
-0.011, -9.120e-6, -3.665e-5
-0.010, -9.075e-6, -3.672e-5
-0.009, -9.071e-6, -3.680e-5
-0.008, -9.039e-6, -3.687e-5
-0.007, -9.025e-6, -3.695e-5
-0.006, -8.998e-6, -3.702e-5
-0.005, -8.981e-6, -3.710e-5
-0.004, -8.954e-6, -3.717e-5
-0.003, -8.945e-6, -3.725e-5
-0.002, -8.905e-6, -3.732e-5
-0.001, -8.912e-6, -3.739e-5
-0.000, -8.866e-6, -3.747e-5
0.001, -8.874e-6, -3.754e-5
0.002, -8.832e-6, -3.762e-5
0.003, -8.829e-6, -3.769e-5
0.004, -8.791e-6, -3.776e-5
0.005, -8.782e-6, -3.784e-5
0.006, -8.761e-6, -3.791e-5
0.007, -8.746e-6, -3.798e-5
0.008, -8.717e-6, -3.805e-5
0.009, -8.711e-6, -3.813e-5
0.010, -8.680e-6, -3.820e-5
0.011, -8.680e-6, -3.827e-5
0.012, -8.637e-6, -3.834e-5
0.013, -8.635e-6, -3.842e-5
0.014, -8.601e-6, -3.849e-5
0.015, -8.590e-6, -3.856e-5
0.016, -8.575e-6, -3.863e-5
0.017, -8.551e-6, -3.870e-5
0.018, -8.534e-6, -3.877e-5
0.019, -8.526e-6, -3.884e-5
0.020, -8.491e-6, -3.891e-5
0.021, -8.488e-6, -3.899e-5
0.022, -8.450e-6, -3.906e-5
0.023, -8.451e-6, -3.913e-5
0.024, -8.420e-6, -3.920e-5
0.025, -8.418e-6, -3.927e-5
0.026, -8.388e-6, -3.934e-5
0.027, -8.385e-6, -3.941e-5
0.028, -8.352e-6, -3.948e-5
0.029, -8.341e-6, -3.955e-5
0.030, -8.317e-6, -3.961e-5
0.031, -8.300e-6, -3.968e-5
0.032, -8.286e-6, -3.975e-5
0.033, -8.278e-6, -3.982e-5
0.034, -8.244e-6, -3.989e-5
0.035, -8.245e-6, -3.996e-5
0.036, -8.206e-6, -4.003e-5
0.037, -8.201e-6, -4.010e-5
0.038, -8.183e-6, -4.016e-5
0.039, -8.169e-6, -4.023e-5
0.040, -8.146e-6, -4.030e-5
0.041, -8.137e-6, -4.037e-5
0.042, -8.109e-6, -4.044e-5
0.043, -8.099e-6, -4.050e-5
0.044, -8.078e-6, -4.057e-5
0.045, -8.067e-6, -4.064e-5
0.046, -8.043e-6, -4.070e-5
0.047, -8.045e-6, -4.077e-5
0.048, -8.004e-6, -4.084e-5
0.049, -8.001e-6, -4.091e-5
0.050, -7.983e-6, -4.097e-5
0.051, -7.964e-6, -4.104e-5
0.052, -7.947e-6, -4.110e-5
0.053, -7.929e-6, -4.117e-5
0.054, -7.910e-6, -4.124e-5
0.055, -7.901e-6, -4.130e-5
0.056, -7.876e-6, -4.137e-5
0.057, -7.866e-6, -4.143e-5
0.058, -7.845e-6, -4.150e-5
0.059, -7.846e-6, -4.156e-5
0.060, -7.808e-6, -4.163e-5
0.061, -7.805e-6, -4.169e-5
0.062, -7.779e-6, -4.176e-5
0.063, -7.763e-6, -4.182e-5
0.064, -7.747e-6, -4.189e-5
0.065, -7.730e-6, -4.195e-5
0.066, -7.708e-6, -4.202e-5
0.067, -7.704e-6, -4.208e-5
