Mar. 30, 2023   16:58:51
Cyclic Voltammetry
File: 10mmol80mvs
Data Source:  Experiment
Instrument Model:  CHI600B
Header: 
Note: 

Init E (V) = 0.268
High E (V) = 0.5
Low E (V) = 0
Init P/N = N
Scan Rate (V/s) = 0.08
Segment = 4
Sample Interval (V) = 0.001
Quiet Time (sec) = 2
Sensitivity (A/V) = 5e-5

Segment 1:

Segment 2:
Ep = 0.313V
ip = 5.786e-5A
Ah = 5.573e-5C

Segment 3:
Ep = 0.206V
ip = -5.539e-5A
Ah = -5.244e-5C

Segment 4:
Ep = 0.313V
ip = 5.720e-5A
Ah = 5.528e-5C

Potential/V, Current/A, Charge/C

Segment 1:
0.267, 1.115e-6, 1.394e-8
0.266, -8.752e-7, 3.003e-9
0.265, -2.578e-6, -2.922e-8
0.264, -4.152e-6, -8.113e-8
0.263, -5.521e-6, -1.501e-7
0.262, -6.990e-6, -2.375e-7
0.261, -8.217e-6, -3.402e-7
0.260, -9.476e-6, -4.587e-7
0.259, -1.062e-5, -5.914e-7
0.258, -1.177e-5, -7.385e-7
0.257, -1.284e-5, -8.991e-7
0.256, -1.394e-5, -1.073e-6
0.255, -1.490e-5, -1.260e-6
0.254, -1.597e-5, -1.459e-6
0.253, -1.686e-5, -1.670e-6
0.252, -1.785e-5, -1.893e-6
0.251, -1.873e-5, -2.127e-6
0.250, -1.965e-5, -2.373e-6
0.249, -2.049e-5, -2.629e-6
0.248, -2.137e-5, -2.896e-6
0.247, -2.213e-5, -3.173e-6
0.246, -2.307e-5, -3.461e-6
0.245, -2.379e-5, -3.758e-6
0.244, -2.459e-5, -4.066e-6
0.243, -2.529e-5, -4.382e-6
0.242, -2.603e-5, -4.707e-6
0.241, -2.669e-5, -5.041e-6
0.240, -2.743e-5, -5.384e-6
0.239, -2.802e-5, -5.734e-6
0.238, -2.877e-5, -6.094e-6
0.237, -2.932e-5, -6.460e-6
0.236, -2.999e-5, -6.835e-6
0.235, -3.049e-5, -7.216e-6
0.234, -3.110e-5, -7.605e-6
0.233, -3.164e-5, -8.000e-6
0.232, -3.221e-5, -8.403e-6
0.231, -3.267e-5, -8.811e-6
0.230, -3.324e-5, -9.227e-6
0.229, -3.364e-5, -9.647e-6
0.228, -3.417e-5, -1.007e-5
0.227, -3.456e-5, -1.051e-5
0.226, -3.503e-5, -1.094e-5
0.225, -3.540e-5, -1.139e-5
0.224, -3.582e-5, -1.183e-5
0.223, -3.613e-5, -1.229e-5
0.222, -3.656e-5, -1.274e-5
0.221, -3.682e-5, -1.320e-5
0.220, -3.720e-5, -1.367e-5
0.219, -3.746e-5, -1.414e-5
0.218, -3.781e-5, -1.461e-5
0.217, -3.807e-5, -1.508e-5
0.216, -3.835e-5, -1.556e-5
0.215, -3.853e-5, -1.605e-5
0.214, -3.882e-5, -1.653e-5
0.213, -3.894e-5, -1.702e-5
0.212, -3.917e-5, -1.751e-5
0.211, -3.931e-5, -1.800e-5
0.210, -3.948e-5, -1.849e-5
0.209, -3.956e-5, -1.899e-5
0.208, -3.973e-5, -1.948e-5
0.207, -3.976e-5, -1.998e-5
0.206, -3.994e-5, -2.048e-5
0.205, -3.991e-5, -2.098e-5
0.204, -4.000e-5, -2.148e-5
0.203, -4.002e-5, -2.198e-5
0.202, -4.006e-5, -2.248e-5
0.201, -4.006e-5, -2.298e-5
0.200, -4.011e-5, -2.348e-5
0.199, -4.004e-5, -2.398e-5
0.198, -4.009e-5, -2.448e-5
0.197, -4.000e-5, -2.498e-5
0.196, -4.000e-5, -2.548e-5
0.195, -3.992e-5, -2.598e-5
0.194, -3.987e-5, -2.648e-5
0.193, -3.977e-5, -2.698e-5
0.192, -3.973e-5, -2.747e-5
0.191, -3.957e-5, -2.797e-5
0.190, -3.953e-5, -2.846e-5
0.189, -3.937e-5, -2.896e-5
0.188, -3.930e-5, -2.945e-5
0.187, -3.914e-5, -2.994e-5
0.186, -3.903e-5, -3.042e-5
0.185, -3.887e-5, -3.091e-5
0.184, -3.877e-5, -3.139e-5
0.183, -3.854e-5, -3.188e-5
0.182, -3.848e-5, -3.236e-5
0.181, -3.825e-5, -3.284e-5
0.180, -3.813e-5, -3.331e-5
0.179, -3.791e-5, -3.379e-5
0.178, -3.774e-5, -3.426e-5
0.177, -3.751e-5, -3.473e-5
0.176, -3.737e-5, -3.519e-5
0.175, -3.712e-5, -3.566e-5
0.174, -3.701e-5, -3.612e-5
0.173, -3.675e-5, -3.658e-5
0.172, -3.662e-5, -3.704e-5
0.171, -3.638e-5, -3.749e-5
0.170, -3.624e-5, -3.795e-5
0.169, -3.601e-5, -3.840e-5
0.168, -3.585e-5, -3.884e-5
0.167, -3.559e-5, -3.929e-5
0.166, -3.545e-5, -3.973e-5
0.165, -3.520e-5, -4.017e-5
0.164, -3.506e-5, -4.061e-5
0.163, -3.481e-5, -4.104e-5
0.162, -3.465e-5, -4.148e-5
0.161, -3.441e-5, -4.191e-5
0.160, -3.427e-5, -4.234e-5
0.159, -3.403e-5, -4.276e-5
0.158, -3.387e-5, -4.319e-5
0.157, -3.363e-5, -4.361e-5
0.156, -3.347e-5, -4.402e-5
0.155, -3.323e-5, -4.444e-5
0.154, -3.308e-5, -4.485e-5
0.153, -3.285e-5, -4.526e-5
0.152, -3.270e-5, -4.567e-5
0.151, -3.246e-5, -4.608e-5
0.150, -3.233e-5, -4.648e-5
0.149, -3.211e-5, -4.688e-5
0.148, -3.195e-5, -4.728e-5
0.147, -3.172e-5, -4.768e-5
0.146, -3.157e-5, -4.807e-5
0.145, -3.138e-5, -4.847e-5
0.144, -3.122e-5, -4.886e-5
0.143, -3.097e-5, -4.924e-5
0.142, -3.087e-5, -4.963e-5
0.141, -3.062e-5, -5.001e-5
0.140, -3.051e-5, -5.039e-5
0.139, -3.029e-5, -5.077e-5
0.138, -3.020e-5, -5.115e-5
0.137, -2.997e-5, -5.152e-5
0.136, -2.988e-5, -5.190e-5
0.135, -2.965e-5, -5.227e-5
0.134, -2.955e-5, -5.264e-5
0.133, -2.931e-5, -5.300e-5
0.132, -2.923e-5, -5.337e-5
0.131, -2.900e-5, -5.373e-5
0.130, -2.892e-5, -5.409e-5
0.129, -2.871e-5, -5.445e-5
0.128, -2.860e-5, -5.481e-5
0.127, -2.839e-5, -5.516e-5
0.126, -2.831e-5, -5.552e-5
0.125, -2.811e-5, -5.587e-5
0.124, -2.803e-5, -5.622e-5
0.123, -2.781e-5, -5.657e-5
0.122, -2.775e-5, -5.691e-5
0.121, -2.755e-5, -5.726e-5
0.120, -2.747e-5, -5.760e-5
0.119, -2.729e-5, -5.794e-5
0.118, -2.721e-5, -5.828e-5
0.117, -2.699e-5, -5.862e-5
0.116, -2.692e-5, -5.896e-5
0.115, -2.675e-5, -5.929e-5
0.114, -2.666e-5, -5.963e-5
0.113, -2.649e-5, -5.996e-5
0.112, -2.642e-5, -6.029e-5
0.111, -2.625e-5, -6.061e-5
0.110, -2.618e-5, -6.094e-5
0.109, -2.599e-5, -6.127e-5
0.108, -2.592e-5, -6.159e-5
0.107, -2.578e-5, -6.191e-5
0.106, -2.570e-5, -6.223e-5
0.105, -2.555e-5, -6.255e-5
0.104, -2.547e-5, -6.287e-5
0.103, -2.533e-5, -6.319e-5
0.102, -2.527e-5, -6.350e-5
0.101, -2.509e-5, -6.382e-5
0.100, -2.504e-5, -6.413e-5
0.099, -2.487e-5, -6.444e-5
0.098, -2.483e-5, -6.475e-5
0.097, -2.467e-5, -6.506e-5
0.096, -2.462e-5, -6.537e-5
0.095, -2.447e-5, -6.567e-5
0.094, -2.441e-5, -6.598e-5
0.093, -2.429e-5, -6.628e-5
0.092, -2.422e-5, -6.659e-5
0.091, -2.409e-5, -6.689e-5
0.090, -2.403e-5, -6.719e-5
0.089, -2.389e-5, -6.749e-5
0.088, -2.386e-5, -6.778e-5
0.087, -2.370e-5, -6.808e-5
0.086, -2.366e-5, -6.838e-5
0.085, -2.354e-5, -6.867e-5
0.084, -2.347e-5, -6.896e-5
0.083, -2.337e-5, -6.926e-5
0.082, -2.332e-5, -6.955e-5
0.081, -2.316e-5, -6.984e-5
0.080, -2.315e-5, -7.013e-5
0.079, -2.298e-5, -7.041e-5
0.078, -2.296e-5, -7.070e-5
0.077, -2.284e-5, -7.099e-5
0.076, -2.281e-5, -7.127e-5
0.075, -2.267e-5, -7.155e-5
0.074, -2.266e-5, -7.184e-5
0.073, -2.251e-5, -7.212e-5
0.072, -2.248e-5, -7.240e-5
0.071, -2.237e-5, -7.268e-5
0.070, -2.235e-5, -7.296e-5
0.069, -2.217e-5, -7.324e-5
0.068, -2.215e-5, -7.351e-5
0.067, -2.198e-5, -7.379e-5
0.066, -2.197e-5, -7.406e-5
0.065, -2.186e-5, -7.434e-5
0.064, -2.185e-5, -7.461e-5
0.063, -2.170e-5, -7.488e-5
0.062, -2.170e-5, -7.515e-5
0.061, -2.156e-5, -7.542e-5
0.060, -2.155e-5, -7.569e-5
0.059, -2.144e-5, -7.596e-5
0.058, -2.143e-5, -7.623e-5
0.057, -2.131e-5, -7.649e-5
0.056, -2.128e-5, -7.676e-5
0.055, -2.116e-5, -7.702e-5
0.054, -2.118e-5, -7.729e-5
0.053, -2.102e-5, -7.755e-5
0.052, -2.102e-5, -7.781e-5
0.051, -2.092e-5, -7.808e-5
0.050, -2.092e-5, -7.834e-5
0.049, -2.078e-5, -7.860e-5
0.048, -2.078e-5, -7.886e-5
0.047, -2.067e-5, -7.911e-5
0.046, -2.068e-5, -7.937e-5
0.045, -2.054e-5, -7.963e-5
0.044, -2.054e-5, -7.989e-5
0.043, -2.046e-5, -8.014e-5
0.042, -2.045e-5, -8.040e-5
0.041, -2.034e-5, -8.065e-5
0.040, -2.033e-5, -8.091e-5
0.039, -2.021e-5, -8.116e-5
0.038, -2.022e-5, -8.141e-5
0.037, -2.009e-5, -8.166e-5
0.036, -2.009e-5, -8.191e-5
0.035, -1.999e-5, -8.216e-5
0.034, -1.999e-5, -8.241e-5
0.033, -1.990e-5, -8.266e-5
0.032, -1.989e-5, -8.291e-5
0.031, -1.977e-5, -8.316e-5
0.030, -1.977e-5, -8.341e-5
0.029, -1.969e-5, -8.365e-5
0.028, -1.969e-5, -8.390e-5
0.027, -1.957e-5, -8.414e-5
0.026, -1.956e-5, -8.439e-5
0.025, -1.950e-5, -8.463e-5
0.024, -1.949e-5, -8.487e-5
0.023, -1.942e-5, -8.512e-5
0.022, -1.940e-5, -8.536e-5
0.021, -1.929e-5, -8.560e-5
0.020, -1.929e-5, -8.584e-5
0.019, -1.919e-5, -8.608e-5
0.018, -1.920e-5, -8.632e-5
0.017, -1.907e-5, -8.656e-5
0.016, -1.910e-5, -8.680e-5
0.015, -1.900e-5, -8.704e-5
0.014, -1.901e-5, -8.727e-5
0.013, -1.892e-5, -8.751e-5
0.012, -1.893e-5, -8.775e-5
0.011, -1.881e-5, -8.798e-5
0.010, -1.882e-5, -8.822e-5
0.009, -1.874e-5, -8.845e-5
0.008, -1.875e-5, -8.869e-5
0.007, -1.865e-5, -8.892e-5
0.006, -1.867e-5, -8.915e-5
0.005, -1.856e-5, -8.938e-5
0.004, -1.857e-5, -8.962e-5
0.003, -1.850e-5, -8.985e-5
0.002, -1.850e-5, -9.008e-5
0.001, -1.842e-5, -9.031e-5
-0.000, -1.839e-5, -9.054e-5

Segment 2:
0.001, -1.815e-5, -9.077e-5
0.002, -1.811e-5, -9.099e-5
0.003, -1.800e-5, -9.122e-5
0.004, -1.800e-5, -9.144e-5
0.005, -1.787e-5, -9.167e-5
0.006, -1.787e-5, -9.189e-5
0.007, -1.777e-5, -9.211e-5
0.008, -1.777e-5, -9.233e-5
0.009, -1.766e-5, -9.255e-5
0.010, -1.766e-5, -9.278e-5
0.011, -1.756e-5, -9.299e-5
0.012, -1.755e-5, -9.321e-5
0.013, -1.750e-5, -9.343e-5
0.014, -1.748e-5, -9.365e-5
0.015, -1.737e-5, -9.387e-5
0.016, -1.737e-5, -9.409e-5
0.017, -1.728e-5, -9.430e-5
0.018, -1.729e-5, -9.452e-5
0.019, -1.719e-5, -9.473e-5
0.020, -1.720e-5, -9.495e-5
0.021, -1.709e-5, -9.516e-5
0.022, -1.709e-5, -9.537e-5
0.023, -1.702e-5, -9.559e-5
0.024, -1.703e-5, -9.580e-5
0.025, -1.692e-5, -9.601e-5
0.026, -1.693e-5, -9.622e-5
0.027, -1.683e-5, -9.643e-5
0.028, -1.684e-5, -9.664e-5
0.029, -1.678e-5, -9.685e-5
0.030, -1.678e-5, -9.706e-5
0.031, -1.669e-5, -9.727e-5
0.032, -1.669e-5, -9.748e-5
0.033, -1.660e-5, -9.769e-5
0.034, -1.660e-5, -9.790e-5
0.035, -1.654e-5, -9.810e-5
0.036, -1.654e-5, -9.831e-5
0.037, -1.647e-5, -9.852e-5
0.038, -1.647e-5, -9.872e-5
0.039, -1.637e-5, -9.893e-5
0.040, -1.638e-5, -9.913e-5
0.041, -1.630e-5, -9.933e-5
0.042, -1.631e-5, -9.954e-5
0.043, -1.622e-5, -9.974e-5
0.044, -1.623e-5, -9.994e-5
0.045, -1.613e-5, -1.001e-4
0.046, -1.613e-5, -1.003e-4
0.047, -1.607e-5, -1.005e-4
0.048, -1.608e-5, -1.007e-4
0.049, -1.601e-5, -1.009e-4
0.050, -1.602e-5, -1.011e-4
0.051, -1.592e-5, -1.013e-4
0.052, -1.592e-5, -1.015e-4
0.053, -1.585e-5, -1.017e-4
0.054, -1.585e-5, -1.019e-4
0.055, -1.579e-5, -1.021e-4
0.056, -1.580e-5, -1.023e-4
0.057, -1.571e-5, -1.025e-4
0.058, -1.572e-5, -1.027e-4
0.059, -1.563e-5, -1.029e-4
0.060, -1.563e-5, -1.031e-4
0.061, -1.559e-5, -1.033e-4
0.062, -1.558e-5, -1.035e-4
0.063, -1.553e-5, -1.037e-4
0.064, -1.553e-5, -1.039e-4
0.065, -1.543e-5, -1.041e-4
0.066, -1.545e-5, -1.043e-4
0.067, -1.534e-5, -1.045e-4
0.068, -1.537e-5, -1.047e-4
0.069, -1.527e-5, -1.049e-4
0.070, -1.531e-5, -1.051e-4
0.071, -1.519e-5, -1.052e-4
0.072, -1.523e-5, -1.054e-4
0.073, -1.511e-5, -1.056e-4
0.074, -1.515e-5, -1.058e-4
0.075, -1.506e-5, -1.060e-4
0.076, -1.509e-5, -1.062e-4
0.077, -1.499e-5, -1.064e-4
0.078, -1.503e-5, -1.066e-4
0.079, -1.490e-5, -1.067e-4
0.080, -1.494e-5, -1.069e-4
0.081, -1.484e-5, -1.071e-4
0.082, -1.487e-5, -1.073e-4
0.083, -1.479e-5, -1.075e-4
0.084, -1.482e-5, -1.077e-4
0.085, -1.471e-5, -1.079e-4
0.086, -1.473e-5, -1.080e-4
0.087, -1.463e-5, -1.082e-4
0.088, -1.466e-5, -1.084e-4
0.089, -1.458e-5, -1.086e-4
0.090, -1.460e-5, -1.088e-4
0.091, -1.450e-5, -1.090e-4
0.092, -1.454e-5, -1.091e-4
0.093, -1.441e-5, -1.093e-4
0.094, -1.444e-5, -1.095e-4
0.095, -1.432e-5, -1.097e-4
0.096, -1.436e-5, -1.099e-4
0.097, -1.422e-5, -1.100e-4
0.098, -1.428e-5, -1.102e-4
0.099, -1.415e-5, -1.104e-4
0.100, -1.418e-5, -1.106e-4
0.101, -1.410e-5, -1.107e-4
0.102, -1.411e-5, -1.109e-4
0.103, -1.401e-5, -1.111e-4
0.104, -1.404e-5, -1.113e-4
0.105, -1.391e-5, -1.114e-4
0.106, -1.394e-5, -1.116e-4
0.107, -1.384e-5, -1.118e-4
0.108, -1.386e-5, -1.120e-4
0.109, -1.374e-5, -1.121e-4
0.110, -1.377e-5, -1.123e-4
0.111, -1.366e-5, -1.125e-4
0.112, -1.367e-5, -1.127e-4
0.113, -1.359e-5, -1.128e-4
0.114, -1.360e-5, -1.130e-4
0.115, -1.348e-5, -1.132e-4
0.116, -1.348e-5, -1.133e-4
0.117, -1.338e-5, -1.135e-4
0.118, -1.339e-5, -1.137e-4
0.119, -1.327e-5, -1.138e-4
0.120, -1.330e-5, -1.140e-4
0.121, -1.317e-5, -1.142e-4
0.122, -1.318e-5, -1.143e-4
0.123, -1.309e-5, -1.145e-4
0.124, -1.309e-5, -1.147e-4
0.125, -1.296e-5, -1.148e-4
0.126, -1.296e-5, -1.150e-4
0.127, -1.286e-5, -1.151e-4
0.128, -1.286e-5, -1.153e-4
0.129, -1.272e-5, -1.155e-4
0.130, -1.272e-5, -1.156e-4
0.131, -1.263e-5, -1.158e-4
0.132, -1.263e-5, -1.159e-4
0.133, -1.249e-5, -1.161e-4
0.134, -1.247e-5, -1.162e-4
0.135, -1.235e-5, -1.164e-4
0.136, -1.234e-5, -1.166e-4
0.137, -1.219e-5, -1.167e-4
0.138, -1.219e-5, -1.169e-4
0.139, -1.208e-5, -1.170e-4
0.140, -1.204e-5, -1.172e-4
0.141, -1.191e-5, -1.173e-4
0.142, -1.189e-5, -1.175e-4
0.143, -1.175e-5, -1.176e-4
0.144, -1.171e-5, -1.177e-4
0.145, -1.161e-5, -1.179e-4
0.146, -1.156e-5, -1.180e-4
0.147, -1.140e-5, -1.182e-4
0.148, -1.137e-5, -1.183e-4
0.149, -1.121e-5, -1.185e-4
0.150, -1.118e-5, -1.186e-4
0.151, -1.101e-5, -1.187e-4
0.152, -1.097e-5, -1.189e-4
0.153, -1.080e-5, -1.190e-4
0.154, -1.075e-5, -1.191e-4
0.155, -1.061e-5, -1.193e-4
0.156, -1.054e-5, -1.194e-4
0.157, -1.037e-5, -1.195e-4
0.158, -1.028e-5, -1.197e-4
0.159, -1.014e-5, -1.198e-4
0.160, -1.005e-5, -1.199e-4
0.161, -9.877e-6, -1.200e-4
0.162, -9.786e-6, -1.202e-4
0.163, -9.621e-6, -1.203e-4
0.164, -9.517e-6, -1.204e-4
0.165, -9.313e-6, -1.205e-4
0.166, -9.224e-6, -1.206e-4
0.167, -9.022e-6, -1.208e-4
0.168, -8.921e-6, -1.209e-4
0.169, -8.725e-6, -1.210e-4
0.170, -8.602e-6, -1.211e-4
0.171, -8.369e-6, -1.212e-4
0.172, -8.248e-6, -1.213e-4
0.173, -8.030e-6, -1.214e-4
0.174, -7.867e-6, -1.215e-4
0.175, -7.687e-6, -1.216e-4
0.176, -7.518e-6, -1.217e-4
0.177, -7.254e-6, -1.218e-4
0.178, -7.107e-6, -1.219e-4
0.179, -6.842e-6, -1.219e-4
0.180, -6.702e-6, -1.220e-4
0.181, -6.342e-6, -1.221e-4
0.182, -6.171e-6, -1.222e-4
0.183, -5.900e-6, -1.223e-4
0.184, -5.707e-6, -1.223e-4
0.185, -5.402e-6, -1.224e-4
0.186, -5.222e-6, -1.225e-4
0.187, -4.894e-6, -1.225e-4
0.188, -4.706e-6, -1.226e-4
0.189, -4.373e-6, -1.226e-4
0.190, -4.132e-6, -1.227e-4
0.191, -3.856e-6, -1.227e-4
0.192, -3.582e-6, -1.228e-4
0.193, -3.221e-6, -1.228e-4
0.194, -2.979e-6, -1.229e-4
0.195, -2.611e-6, -1.229e-4
0.196, -2.341e-6, -1.229e-4
0.197, -1.996e-6, -1.229e-4
0.198, -1.673e-6, -1.230e-4
0.199, -1.303e-6, -1.230e-4
0.200, -9.683e-7, -1.230e-4
0.201, -5.911e-7, -1.230e-4
0.202, -2.746e-7, -1.230e-4
0.203, 1.824e-7, -1.230e-4
0.204, 4.832e-7, -1.230e-4
0.205, 9.870e-7, -1.230e-4
0.206, 1.304e-6, -1.230e-4
0.207, 1.802e-6, -1.229e-4
0.208, 2.144e-6, -1.229e-4
0.209, 2.653e-6, -1.229e-4
0.210, 2.966e-6, -1.228e-4
0.211, 3.530e-6, -1.228e-4
0.212, 3.848e-6, -1.228e-4
0.213, 4.409e-6, -1.227e-4
0.214, 4.771e-6, -1.226e-4
0.215, 5.326e-6, -1.226e-4
0.216, 5.708e-6, -1.225e-4
0.217, 6.299e-6, -1.224e-4
0.218, 6.680e-6, -1.223e-4
0.219, 7.291e-6, -1.222e-4
0.220, 7.684e-6, -1.222e-4
0.221, 8.311e-6, -1.220e-4
0.222, 8.768e-6, -1.219e-4
0.223, 9.414e-6, -1.218e-4
0.224, 9.880e-6, -1.217e-4
0.225, 1.052e-5, -1.216e-4
0.226, 1.094e-5, -1.214e-4
0.227, 1.162e-5, -1.213e-4
0.228, 1.207e-5, -1.211e-4
0.229, 1.273e-5, -1.210e-4
0.230, 1.322e-5, -1.208e-4
0.231, 1.388e-5, -1.206e-4
0.232, 1.439e-5, -1.205e-4
0.233, 1.507e-5, -1.203e-4
0.234, 1.556e-5, -1.201e-4
0.235, 1.632e-5, -1.199e-4
0.236, 1.681e-5, -1.197e-4
0.237, 1.754e-5, -1.194e-4
0.238, 1.807e-5, -1.192e-4
0.239, 1.876e-5, -1.190e-4
0.240, 1.931e-5, -1.187e-4
0.241, 2.005e-5, -1.185e-4
0.242, 2.054e-5, -1.182e-4
0.243, 2.130e-5, -1.180e-4
0.244, 2.184e-5, -1.177e-4
0.245, 2.258e-5, -1.174e-4
0.246, 2.313e-5, -1.171e-4
0.247, 2.385e-5, -1.168e-4
0.248, 2.444e-5, -1.165e-4
0.249, 2.523e-5, -1.162e-4
0.250, 2.577e-5, -1.159e-4
0.251, 2.654e-5, -1.155e-4
0.252, 2.708e-5, -1.152e-4
0.253, 2.782e-5, -1.149e-4
0.254, 2.838e-5, -1.145e-4
0.255, 2.908e-5, -1.141e-4
0.256, 2.967e-5, -1.138e-4
0.257, 3.039e-5, -1.134e-4
0.258, 3.093e-5, -1.130e-4
0.259, 3.172e-5, -1.126e-4
0.260, 3.221e-5, -1.122e-4
0.261, 3.291e-5, -1.118e-4
0.262, 3.348e-5, -1.114e-4
0.263, 3.417e-5, -1.109e-4
0.264, 3.471e-5, -1.105e-4
0.265, 3.544e-5, -1.101e-4
0.266, 3.591e-5, -1.096e-4
0.267, 3.664e-5, -1.092e-4
0.268, 3.711e-5, -1.087e-4
0.269, 3.779e-5, -1.082e-4
0.270, 3.829e-5, -1.077e-4
0.271, 3.890e-5, -1.073e-4
0.272, 3.940e-5, -1.068e-4
0.273, 4.005e-5, -1.063e-4
0.274, 4.051e-5, -1.058e-4
0.275, 4.117e-5, -1.052e-4
0.276, 4.158e-5, -1.047e-4
0.277, 4.218e-5, -1.042e-4
0.278, 4.262e-5, -1.037e-4
0.279, 4.317e-5, -1.031e-4
0.280, 4.358e-5, -1.026e-4
0.281, 4.415e-5, -1.020e-4
0.282, 4.448e-5, -1.015e-4
0.283, 4.505e-5, -1.009e-4
0.284, 4.535e-5, -1.003e-4
0.285, 4.585e-5, -9.977e-5
0.286, 4.619e-5, -9.920e-5
0.287, 4.661e-5, -9.861e-5
0.288, 4.694e-5, -9.803e-5
0.289, 4.741e-5, -9.743e-5
0.290, 4.760e-5, -9.684e-5
0.291, 4.810e-5, -9.624e-5
0.292, 4.827e-5, -9.563e-5
0.293, 4.866e-5, -9.503e-5
0.294, 4.887e-5, -9.442e-5
0.295, 4.920e-5, -9.380e-5
0.296, 4.937e-5, -9.318e-5
0.297, 4.970e-5, -9.256e-5
0.298, 4.980e-5, -9.194e-5
0.299, 5.011e-5, -9.131e-5
0.300, 5.017e-5, -9.069e-5
0.301, 5.045e-5, -9.006e-5
0.302, 5.054e-5, -8.942e-5
0.303, 5.073e-5, -8.879e-5
0.304, 5.079e-5, -8.815e-5
0.305, 5.099e-5, -8.752e-5
0.306, 5.097e-5, -8.688e-5
0.307, 5.115e-5, -8.624e-5
0.308, 5.109e-5, -8.560e-5
0.309, 5.125e-5, -8.496e-5
0.310, 5.118e-5, -8.432e-5
0.311, 5.126e-5, -8.368e-5
0.312, 5.117e-5, -8.304e-5
0.313, 5.127e-5, -8.240e-5
0.314, 5.111e-5, -8.176e-5
0.315, 5.120e-5, -8.112e-5
0.316, 5.104e-5, -8.048e-5
0.317, 5.106e-5, -7.985e-5
0.318, 5.088e-5, -7.921e-5
0.319, 5.084e-5, -7.857e-5
0.320, 5.067e-5, -7.794e-5
0.321, 5.063e-5, -7.731e-5
0.322, 5.041e-5, -7.668e-5
0.323, 5.039e-5, -7.605e-5
0.324, 5.012e-5, -7.542e-5
0.325, 5.007e-5, -7.480e-5
0.326, 4.982e-5, -7.417e-5
0.327, 4.970e-5, -7.355e-5
0.328, 4.945e-5, -7.293e-5
0.329, 4.936e-5, -7.232e-5
0.330, 4.906e-5, -7.170e-5
0.331, 4.896e-5, -7.109e-5
0.332, 4.863e-5, -7.048e-5
0.333, 4.851e-5, -6.988e-5
0.334, 4.818e-5, -6.927e-5
0.335, 4.805e-5, -6.867e-5
0.336, 4.770e-5, -6.808e-5
0.337, 4.758e-5, -6.748e-5
0.338, 4.720e-5, -6.689e-5
0.339, 4.707e-5, -6.630e-5
0.340, 4.669e-5, -6.572e-5
0.341, 4.653e-5, -6.514e-5
0.342, 4.620e-5, -6.456e-5
0.343, 4.601e-5, -6.399e-5
0.344, 4.568e-5, -6.342e-5
0.345, 4.551e-5, -6.285e-5
0.346, 4.516e-5, -6.228e-5
0.347, 4.497e-5, -6.172e-5
0.348, 4.461e-5, -6.116e-5
0.349, 4.444e-5, -6.061e-5
0.350, 4.408e-5, -6.006e-5
0.351, 4.388e-5, -5.951e-5
0.352, 4.354e-5, -5.896e-5
0.353, 4.337e-5, -5.842e-5
0.354, 4.300e-5, -5.788e-5
0.355, 4.282e-5, -5.735e-5
0.356, 4.247e-5, -5.682e-5
0.357, 4.229e-5, -5.629e-5
0.358, 4.194e-5, -5.576e-5
0.359, 4.178e-5, -5.524e-5
0.360, 4.141e-5, -5.473e-5
0.361, 4.125e-5, -5.421e-5
0.362, 4.088e-5, -5.370e-5
0.363, 4.075e-5, -5.319e-5
0.364, 4.036e-5, -5.268e-5
0.365, 4.020e-5, -5.218e-5
0.366, 3.982e-5, -5.168e-5
0.367, 3.966e-5, -5.119e-5
0.368, 3.933e-5, -5.070e-5
0.369, 3.916e-5, -5.021e-5
0.370, 3.883e-5, -4.972e-5
0.371, 3.868e-5, -4.924e-5
0.372, 3.835e-5, -4.876e-5
0.373, 3.820e-5, -4.828e-5
0.374, 3.788e-5, -4.781e-5
0.375, 3.774e-5, -4.734e-5
0.376, 3.742e-5, -4.687e-5
0.377, 3.731e-5, -4.640e-5
0.378, 3.695e-5, -4.594e-5
0.379, 3.685e-5, -4.548e-5
0.380, 3.652e-5, -4.502e-5
0.381, 3.641e-5, -4.457e-5
0.382, 3.609e-5, -4.412e-5
0.383, 3.596e-5, -4.367e-5
0.384, 3.567e-5, -4.322e-5
0.385, 3.556e-5, -4.278e-5
0.386, 3.525e-5, -4.234e-5
0.387, 3.515e-5, -4.190e-5
0.388, 3.485e-5, -4.146e-5
0.389, 3.474e-5, -4.103e-5
0.390, 3.445e-5, -4.060e-5
0.391, 3.436e-5, -4.017e-5
0.392, 3.406e-5, -3.974e-5
0.393, 3.398e-5, -3.932e-5
0.394, 3.369e-5, -3.890e-5
0.395, 3.361e-5, -3.848e-5
0.396, 3.334e-5, -3.806e-5
0.397, 3.324e-5, -3.764e-5
0.398, 3.296e-5, -3.723e-5
0.399, 3.289e-5, -3.682e-5
0.400, 3.260e-5, -3.641e-5
0.401, 3.254e-5, -3.601e-5
0.402, 3.227e-5, -3.560e-5
0.403, 3.223e-5, -3.520e-5
0.404, 3.197e-5, -3.480e-5
0.405, 3.192e-5, -3.440e-5
0.406, 3.164e-5, -3.401e-5
0.407, 3.157e-5, -3.361e-5
0.408, 3.132e-5, -3.322e-5
0.409, 3.123e-5, -3.283e-5
0.410, 3.100e-5, -3.244e-5
0.411, 3.095e-5, -3.205e-5
0.412, 3.070e-5, -3.167e-5
0.413, 3.062e-5, -3.129e-5
0.414, 3.040e-5, -3.091e-5
0.415, 3.034e-5, -3.053e-5
0.416, 3.010e-5, -3.015e-5
0.417, 3.007e-5, -2.978e-5
0.418, 2.983e-5, -2.940e-5
0.419, 2.979e-5, -2.903e-5
0.420, 2.957e-5, -2.866e-5
0.421, 2.953e-5, -2.829e-5
0.422, 2.930e-5, -2.793e-5
0.423, 2.925e-5, -2.756e-5
0.424, 2.903e-5, -2.720e-5
0.425, 2.901e-5, -2.684e-5
0.426, 2.878e-5, -2.648e-5
0.427, 2.874e-5, -2.612e-5
0.428, 2.853e-5, -2.576e-5
0.429, 2.850e-5, -2.540e-5
0.430, 2.828e-5, -2.505e-5
0.431, 2.824e-5, -2.470e-5
0.432, 2.804e-5, -2.435e-5
0.433, 2.804e-5, -2.400e-5
0.434, 2.780e-5, -2.365e-5
0.435, 2.779e-5, -2.330e-5
0.436, 2.759e-5, -2.296e-5
0.437, 2.756e-5, -2.261e-5
0.438, 2.736e-5, -2.227e-5
0.439, 2.733e-5, -2.193e-5
0.440, 2.713e-5, -2.159e-5
0.441, 2.713e-5, -2.125e-5
0.442, 2.691e-5, -2.091e-5
0.443, 2.690e-5, -2.058e-5
0.444, 2.669e-5, -2.024e-5
0.445, 2.669e-5, -1.991e-5
0.446, 2.649e-5, -1.958e-5
0.447, 2.648e-5, -1.925e-5
0.448, 2.629e-5, -1.892e-5
0.449, 2.629e-5, -1.859e-5
0.450, 2.611e-5, -1.826e-5
0.451, 2.612e-5, -1.794e-5
0.452, 2.591e-5, -1.761e-5
0.453, 2.591e-5, -1.729e-5
0.454, 2.571e-5, -1.697e-5
0.455, 2.572e-5, -1.665e-5
0.456, 2.555e-5, -1.633e-5
0.457, 2.554e-5, -1.601e-5
0.458, 2.535e-5, -1.569e-5
0.459, 2.536e-5, -1.537e-5
0.460, 2.517e-5, -1.506e-5
0.461, 2.519e-5, -1.474e-5
0.462, 2.499e-5, -1.443e-5
0.463, 2.501e-5, -1.412e-5
0.464, 2.482e-5, -1.381e-5
0.465, 2.485e-5, -1.350e-5
0.466, 2.465e-5, -1.319e-5
0.467, 2.468e-5, -1.288e-5
0.468, 2.446e-5, -1.258e-5
0.469, 2.447e-5, -1.227e-5
0.470, 2.426e-5, -1.197e-5
0.471, 2.428e-5, -1.166e-5
0.472, 2.412e-5, -1.136e-5
0.473, 2.415e-5, -1.106e-5
0.474, 2.396e-5, -1.076e-5
0.475, 2.398e-5, -1.046e-5
0.476, 2.380e-5, -1.016e-5
0.477, 2.382e-5, -9.866e-6
0.478, 2.368e-5, -9.570e-6
0.479, 2.370e-5, -9.274e-6
0.480, 2.350e-5, -8.980e-6
0.481, 2.353e-5, -8.686e-6
0.482, 2.336e-5, -8.394e-6
0.483, 2.337e-5, -8.102e-6
0.484, 2.322e-5, -7.811e-6
0.485, 2.323e-5, -7.521e-6
0.486, 2.308e-5, -7.232e-6
0.487, 2.310e-5, -6.944e-6
0.488, 2.295e-5, -6.657e-6
0.489, 2.297e-5, -6.370e-6
0.490, 2.280e-5, -6.085e-6
0.491, 2.282e-5, -5.799e-6
0.492, 2.269e-5, -5.516e-6
0.493, 2.272e-5, -5.232e-6
0.494, 2.254e-5, -4.950e-6
0.495, 2.257e-5, -4.668e-6
0.496, 2.243e-5, -4.388e-6
0.497, 2.245e-5, -4.107e-6
0.498, 2.228e-5, -3.828e-6
0.499, 2.231e-5, -3.549e-6
0.500, 2.213e-5, -3.273e-6

Segment 3:
0.499, 2.199e-5, -2.998e-6
0.498, 2.178e-5, -2.726e-6
0.497, 2.177e-5, -2.454e-6
0.496, 2.159e-5, -2.184e-6
0.495, 2.158e-5, -1.914e-6
0.494, 2.141e-5, -1.646e-6
0.493, 2.141e-5, -1.379e-6
0.492, 2.126e-5, -1.113e-6
0.491, 2.126e-5, -8.471e-7
0.490, 2.109e-5, -5.835e-7
0.489, 2.111e-5, -3.197e-7
0.488, 2.096e-5, -5.765e-8
0.487, 2.098e-5, 2.046e-7
0.486, 2.080e-5, 4.647e-7
0.485, 2.083e-5, 7.250e-7
0.484, 2.068e-5, 9.834e-7
0.483, 2.071e-5, 1.242e-6
0.482, 2.054e-5, 1.499e-6
0.481, 2.056e-5, 1.756e-6
0.480, 2.039e-5, 2.011e-6
0.479, 2.043e-5, 2.266e-6
0.478, 2.028e-5, 2.520e-6
0.477, 2.030e-5, 2.774e-6
0.476, 2.014e-5, 3.025e-6
0.475, 2.018e-5, 3.278e-6
0.474, 2.003e-5, 3.528e-6
0.473, 2.006e-5, 3.779e-6
0.472, 1.989e-5, 4.027e-6
0.471, 1.994e-5, 4.277e-6
0.470, 1.979e-5, 4.524e-6
0.469, 1.982e-5, 4.772e-6
0.468, 1.967e-5, 5.018e-6
0.467, 1.971e-5, 5.264e-6
0.466, 1.955e-5, 5.509e-6
0.465, 1.957e-5, 5.753e-6
0.464, 1.942e-5, 5.996e-6
0.463, 1.947e-5, 6.239e-6
0.462, 1.932e-5, 6.481e-6
0.461, 1.934e-5, 6.722e-6
0.460, 1.921e-5, 6.963e-6
0.459, 1.924e-5, 7.203e-6
0.458, 1.909e-5, 7.442e-6
0.457, 1.912e-5, 7.681e-6
0.456, 1.898e-5, 7.918e-6
0.455, 1.903e-5, 8.156e-6
0.454, 1.886e-5, 8.392e-6
0.453, 1.890e-5, 8.628e-6
0.452, 1.877e-5, 8.862e-6
0.451, 1.882e-5, 9.098e-6
0.450, 1.864e-5, 9.331e-6
0.449, 1.869e-5, 9.564e-6
0.448, 1.855e-5, 9.796e-6
0.447, 1.859e-5, 1.003e-5
0.446, 1.843e-5, 1.026e-5
0.445, 1.849e-5, 1.049e-5
0.444, 1.834e-5, 1.072e-5
0.443, 1.837e-5, 1.095e-5
0.442, 1.824e-5, 1.118e-5
0.441, 1.829e-5, 1.141e-5
0.440, 1.812e-5, 1.163e-5
0.439, 1.817e-5, 1.186e-5
0.438, 1.803e-5, 1.208e-5
0.437, 1.808e-5, 1.231e-5
0.436, 1.790e-5, 1.253e-5
0.435, 1.796e-5, 1.276e-5
0.434, 1.784e-5, 1.298e-5
0.433, 1.787e-5, 1.321e-5
0.432, 1.773e-5, 1.343e-5
0.431, 1.779e-5, 1.365e-5
0.430, 1.762e-5, 1.387e-5
0.429, 1.765e-5, 1.409e-5
0.428, 1.751e-5, 1.431e-5
0.427, 1.755e-5, 1.453e-5
0.426, 1.739e-5, 1.475e-5
0.425, 1.743e-5, 1.496e-5
0.424, 1.731e-5, 1.518e-5
0.423, 1.735e-5, 1.540e-5
0.422, 1.718e-5, 1.561e-5
0.421, 1.723e-5, 1.583e-5
0.420, 1.709e-5, 1.604e-5
0.419, 1.713e-5, 1.625e-5
0.418, 1.697e-5, 1.647e-5
0.417, 1.703e-5, 1.668e-5
0.416, 1.687e-5, 1.689e-5
0.415, 1.692e-5, 1.710e-5
0.414, 1.676e-5, 1.731e-5
0.413, 1.683e-5, 1.752e-5
0.412, 1.664e-5, 1.773e-5
0.411, 1.669e-5, 1.794e-5
0.410, 1.653e-5, 1.815e-5
0.409, 1.657e-5, 1.835e-5
0.408, 1.641e-5, 1.856e-5
0.407, 1.644e-5, 1.876e-5
0.406, 1.630e-5, 1.897e-5
0.405, 1.636e-5, 1.917e-5
0.404, 1.618e-5, 1.937e-5
0.403, 1.622e-5, 1.958e-5
0.402, 1.607e-5, 1.978e-5
0.401, 1.611e-5, 1.998e-5
0.400, 1.593e-5, 2.018e-5
0.399, 1.597e-5, 2.038e-5
0.398, 1.584e-5, 2.058e-5
0.397, 1.587e-5, 2.077e-5
0.396, 1.568e-5, 2.097e-5
0.395, 1.569e-5, 2.117e-5
0.394, 1.555e-5, 2.136e-5
0.393, 1.555e-5, 2.155e-5
0.392, 1.541e-5, 2.175e-5
0.391, 1.543e-5, 2.194e-5
0.390, 1.527e-5, 2.213e-5
0.389, 1.530e-5, 2.232e-5
0.388, 1.514e-5, 2.251e-5
0.387, 1.515e-5, 2.270e-5
0.386, 1.498e-5, 2.289e-5
0.385, 1.499e-5, 2.308e-5
0.384, 1.485e-5, 2.326e-5
0.383, 1.487e-5, 2.345e-5
0.382, 1.468e-5, 2.363e-5
0.381, 1.468e-5, 2.381e-5
0.380, 1.450e-5, 2.400e-5
0.379, 1.450e-5, 2.418e-5
0.378, 1.436e-5, 2.436e-5
0.377, 1.436e-5, 2.454e-5
0.376, 1.417e-5, 2.471e-5
0.375, 1.418e-5, 2.489e-5
0.374, 1.398e-5, 2.506e-5
0.373, 1.398e-5, 2.524e-5
0.372, 1.380e-5, 2.541e-5
0.371, 1.377e-5, 2.558e-5
0.370, 1.359e-5, 2.575e-5
0.369, 1.356e-5, 2.592e-5
0.368, 1.339e-5, 2.609e-5
0.367, 1.337e-5, 2.626e-5
0.366, 1.316e-5, 2.642e-5
0.365, 1.314e-5, 2.659e-5
0.364, 1.294e-5, 2.675e-5
0.363, 1.292e-5, 2.691e-5
0.362, 1.270e-5, 2.707e-5
0.361, 1.265e-5, 2.723e-5
0.360, 1.244e-5, 2.738e-5
0.359, 1.242e-5, 2.754e-5
0.358, 1.215e-5, 2.769e-5
0.357, 1.212e-5, 2.784e-5
0.356, 1.190e-5, 2.799e-5
0.355, 1.182e-5, 2.814e-5
0.354, 1.158e-5, 2.828e-5
0.353, 1.152e-5, 2.843e-5
0.352, 1.128e-5, 2.857e-5
0.351, 1.122e-5, 2.871e-5
0.350, 1.095e-5, 2.884e-5
0.349, 1.089e-5, 2.898e-5
0.348, 1.060e-5, 2.911e-5
0.347, 1.054e-5, 2.924e-5
0.346, 1.027e-5, 2.937e-5
0.345, 1.016e-5, 2.950e-5
0.344, 9.902e-6, 2.962e-5
0.343, 9.785e-6, 2.975e-5
0.342, 9.474e-6, 2.986e-5
0.341, 9.382e-6, 2.998e-5
0.340, 9.063e-6, 3.009e-5
0.339, 8.951e-6, 3.021e-5
0.338, 8.575e-6, 3.031e-5
0.337, 8.430e-6, 3.042e-5
0.336, 8.112e-6, 3.052e-5
0.335, 7.982e-6, 3.062e-5
0.334, 7.611e-6, 3.072e-5
0.333, 7.462e-6, 3.081e-5
0.332, 7.113e-6, 3.090e-5
0.331, 6.943e-6, 3.098e-5
0.330, 6.592e-6, 3.107e-5
0.329, 6.383e-6, 3.115e-5
0.328, 6.044e-6, 3.122e-5
0.327, 5.827e-6, 3.130e-5
0.326, 5.421e-6, 3.136e-5
0.325, 5.234e-6, 3.143e-5
0.324, 4.814e-6, 3.149e-5
0.323, 4.597e-6, 3.155e-5
0.322, 4.184e-6, 3.160e-5
0.321, 3.941e-6, 3.165e-5
0.320, 3.515e-6, 3.169e-5
0.319, 3.265e-6, 3.173e-5
0.318, 2.791e-6, 3.177e-5
0.317, 2.554e-6, 3.180e-5
0.316, 2.086e-6, 3.183e-5
0.315, 1.790e-6, 3.185e-5
0.314, 1.308e-6, 3.186e-5
0.313, 9.704e-7, 3.188e-5
0.312, 4.566e-7, 3.188e-5
0.311, 8.352e-8, 3.188e-5
0.310, -3.796e-7, 3.188e-5
0.309, -7.880e-7, 3.187e-5
0.308, -1.247e-6, 3.185e-5
0.307, -1.673e-6, 3.183e-5
0.306, -2.125e-6, 3.181e-5
0.305, -2.566e-6, 3.177e-5
0.304, -3.061e-6, 3.173e-5
0.303, -3.496e-6, 3.169e-5
0.302, -4.012e-6, 3.164e-5
0.301, -4.433e-6, 3.159e-5
0.300, -5.008e-6, 3.152e-5
0.299, -5.447e-6, 3.145e-5
0.298, -5.996e-6, 3.138e-5
0.297, -6.533e-6, 3.130e-5
0.296, -7.104e-6, 3.121e-5
0.295, -7.609e-6, 3.111e-5
0.294, -8.188e-6, 3.101e-5
0.293, -8.685e-6, 3.090e-5
0.292, -9.283e-6, 3.079e-5
0.291, -9.800e-6, 3.066e-5
0.290, -1.039e-5, 3.054e-5
0.289, -1.093e-5, 3.040e-5
0.288, -1.156e-5, 3.025e-5
0.287, -1.209e-5, 3.010e-5
0.286, -1.275e-5, 2.994e-5
0.285, -1.324e-5, 2.978e-5
0.284, -1.394e-5, 2.960e-5
0.283, -1.448e-5, 2.942e-5
0.282, -1.515e-5, 2.923e-5
0.281, -1.575e-5, 2.904e-5
0.280, -1.639e-5, 2.883e-5
0.279, -1.696e-5, 2.862e-5
0.278, -1.766e-5, 2.840e-5
0.277, -1.822e-5, 2.817e-5
0.276, -1.891e-5, 2.793e-5
0.275, -1.950e-5, 2.769e-5
0.274, -2.016e-5, 2.744e-5
0.273, -2.078e-5, 2.718e-5
0.272, -2.146e-5, 2.691e-5
0.271, -2.207e-5, 2.664e-5
0.270, -2.283e-5, 2.635e-5
0.269, -2.341e-5, 2.606e-5
0.268, -2.412e-5, 2.576e-5
0.267, -2.470e-5, 2.545e-5
0.266, -2.538e-5, 2.513e-5
0.265, -2.599e-5, 2.480e-5
0.264, -2.668e-5, 2.447e-5
0.263, -2.729e-5, 2.413e-5
0.262, -2.801e-5, 2.378e-5
0.261, -2.854e-5, 2.342e-5
0.260, -2.926e-5, 2.306e-5
0.259, -2.981e-5, 2.268e-5
0.258, -3.047e-5, 2.230e-5
0.257, -3.108e-5, 2.192e-5
0.256, -3.174e-5, 2.152e-5
0.255, -3.232e-5, 2.111e-5
0.254, -3.298e-5, 2.070e-5
0.253, -3.351e-5, 2.028e-5
0.252, -3.419e-5, 1.986e-5
0.251, -3.472e-5, 1.942e-5
0.250, -3.534e-5, 1.898e-5
0.249, -3.591e-5, 1.853e-5
0.248, -3.648e-5, 1.808e-5
0.247, -3.701e-5, 1.761e-5
0.246, -3.764e-5, 1.714e-5
0.245, -3.815e-5, 1.667e-5
0.244, -3.877e-5, 1.618e-5
0.243, -3.924e-5, 1.569e-5
0.242, -3.979e-5, 1.519e-5
0.241, -4.028e-5, 1.469e-5
0.240, -4.080e-5, 1.418e-5
0.239, -4.124e-5, 1.366e-5
0.238, -4.179e-5, 1.314e-5
0.237, -4.216e-5, 1.261e-5
0.236, -4.270e-5, 1.208e-5
0.235, -4.306e-5, 1.154e-5
0.234, -4.354e-5, 1.100e-5
0.233, -4.391e-5, 1.045e-5
0.232, -4.433e-5, 9.896e-6
0.231, -4.466e-5, 9.337e-6
0.230, -4.512e-5, 8.773e-6
0.229, -4.537e-5, 8.206e-6
0.228, -4.582e-5, 7.633e-6
0.227, -4.607e-5, 7.058e-6
0.226, -4.644e-5, 6.477e-6
0.225, -4.672e-5, 5.893e-6
0.224, -4.702e-5, 5.305e-6
0.223, -4.726e-5, 4.715e-6
0.222, -4.756e-5, 4.120e-6
0.221, -4.771e-5, 3.524e-6
0.220, -4.802e-5, 2.924e-6
0.219, -4.813e-5, 2.322e-6
0.218, -4.834e-5, 1.718e-6
0.217, -4.849e-5, 1.111e-6
0.216, -4.869e-5, 5.028e-7
0.215, -4.880e-5, -1.072e-7
0.214, -4.900e-5, -7.196e-7
0.213, -4.902e-5, -1.332e-6
0.212, -4.918e-5, -1.947e-6
0.211, -4.920e-5, -2.562e-6
0.210, -4.930e-5, -3.178e-6
0.209, -4.931e-5, -3.795e-6
0.208, -4.938e-5, -4.412e-6
0.207, -4.934e-5, -5.029e-6
0.206, -4.945e-5, -5.647e-6
0.205, -4.933e-5, -6.263e-6
0.204, -4.937e-5, -6.881e-6
0.203, -4.928e-5, -7.497e-6
0.202, -4.928e-5, -8.113e-6
0.201, -4.920e-5, -8.728e-6
0.200, -4.916e-5, -9.342e-6
0.199, -4.904e-5, -9.955e-6
0.198, -4.902e-5, -1.057e-5
0.197, -4.882e-5, -1.118e-5
0.196, -4.878e-5, -1.179e-5
0.195, -4.859e-5, -1.240e-5
0.194, -4.851e-5, -1.300e-5
0.193, -4.831e-5, -1.361e-5
0.192, -4.821e-5, -1.421e-5
0.191, -4.801e-5, -1.481e-5
0.190, -4.790e-5, -1.541e-5
0.189, -4.764e-5, -1.600e-5
0.188, -4.752e-5, -1.660e-5
0.187, -4.728e-5, -1.719e-5
0.186, -4.710e-5, -1.778e-5
0.185, -4.688e-5, -1.836e-5
0.184, -4.670e-5, -1.895e-5
0.183, -4.640e-5, -1.953e-5
0.182, -4.627e-5, -2.010e-5
0.181, -4.597e-5, -2.068e-5
0.180, -4.581e-5, -2.125e-5
0.179, -4.547e-5, -2.182e-5
0.178, -4.530e-5, -2.239e-5
0.177, -4.501e-5, -2.295e-5
0.176, -4.482e-5, -2.351e-5
0.175, -4.449e-5, -2.407e-5
0.174, -4.434e-5, -2.462e-5
0.173, -4.399e-5, -2.517e-5
0.172, -4.384e-5, -2.572e-5
0.171, -4.349e-5, -2.626e-5
0.170, -4.330e-5, -2.680e-5
0.169, -4.300e-5, -2.734e-5
0.168, -4.280e-5, -2.787e-5
0.167, -4.246e-5, -2.841e-5
0.166, -4.228e-5, -2.893e-5
0.165, -4.196e-5, -2.946e-5
0.164, -4.176e-5, -2.998e-5
0.163, -4.146e-5, -3.050e-5
0.162, -4.124e-5, -3.101e-5
0.161, -4.096e-5, -3.153e-5
0.160, -4.074e-5, -3.204e-5
0.159, -4.044e-5, -3.254e-5
0.158, -4.024e-5, -3.304e-5
0.157, -3.994e-5, -3.354e-5
0.156, -3.974e-5, -3.404e-5
0.155, -3.945e-5, -3.453e-5
0.154, -3.924e-5, -3.502e-5
0.153, -3.897e-5, -3.551e-5
0.152, -3.876e-5, -3.600e-5
0.151, -3.845e-5, -3.648e-5
0.150, -3.828e-5, -3.695e-5
0.149, -3.798e-5, -3.743e-5
0.148, -3.776e-5, -3.790e-5
0.147, -3.745e-5, -3.837e-5
0.146, -3.727e-5, -3.884e-5
0.145, -3.700e-5, -3.930e-5
0.144, -3.682e-5, -3.976e-5
0.143, -3.653e-5, -4.021e-5
0.142, -3.636e-5, -4.067e-5
0.141, -3.609e-5, -4.112e-5
0.140, -3.594e-5, -4.157e-5
0.139, -3.565e-5, -4.202e-5
0.138, -3.549e-5, -4.246e-5
0.137, -3.524e-5, -4.290e-5
0.136, -3.509e-5, -4.334e-5
0.135, -3.481e-5, -4.377e-5
0.134, -3.466e-5, -4.421e-5
0.133, -3.440e-5, -4.464e-5
0.132, -3.426e-5, -4.506e-5
0.131, -3.403e-5, -4.549e-5
0.130, -3.387e-5, -4.591e-5
0.129, -3.363e-5, -4.633e-5
0.128, -3.347e-5, -4.675e-5
0.127, -3.324e-5, -4.717e-5
0.126, -3.312e-5, -4.758e-5
0.125, -3.287e-5, -4.799e-5
0.124, -3.273e-5, -4.840e-5
0.123, -3.251e-5, -4.881e-5
0.122, -3.238e-5, -4.921e-5
0.121, -3.218e-5, -4.962e-5
0.120, -3.203e-5, -5.002e-5
0.119, -3.181e-5, -5.041e-5
0.118, -3.169e-5, -5.081e-5
0.117, -3.148e-5, -5.120e-5
0.116, -3.136e-5, -5.159e-5
0.115, -3.118e-5, -5.198e-5
0.114, -3.102e-5, -5.237e-5
0.113, -3.079e-5, -5.276e-5
0.112, -3.072e-5, -5.314e-5
0.111, -3.048e-5, -5.352e-5
0.110, -3.042e-5, -5.390e-5
0.109, -3.021e-5, -5.428e-5
0.108, -3.012e-5, -5.466e-5
0.107, -2.991e-5, -5.503e-5
0.106, -2.983e-5, -5.540e-5
0.105, -2.964e-5, -5.577e-5
0.104, -2.954e-5, -5.614e-5
0.103, -2.933e-5, -5.651e-5
0.102, -2.927e-5, -5.688e-5
0.101, -2.905e-5, -5.724e-5
0.100, -2.900e-5, -5.760e-5
0.099, -2.879e-5, -5.796e-5
0.098, -2.874e-5, -5.832e-5
0.097, -2.853e-5, -5.868e-5
0.096, -2.848e-5, -5.903e-5
0.095, -2.828e-5, -5.939e-5
0.094, -2.823e-5, -5.974e-5
0.093, -2.802e-5, -6.009e-5
0.092, -2.797e-5, -6.044e-5
0.091, -2.778e-5, -6.079e-5
0.090, -2.772e-5, -6.113e-5
0.089, -2.754e-5, -6.148e-5
0.088, -2.749e-5, -6.182e-5
0.087, -2.731e-5, -6.216e-5
0.086, -2.726e-5, -6.250e-5
0.085, -2.706e-5, -6.284e-5
0.084, -2.703e-5, -6.318e-5
0.083, -2.683e-5, -6.351e-5
0.082, -2.680e-5, -6.385e-5
0.081, -2.661e-5, -6.418e-5
0.080, -2.658e-5, -6.451e-5
0.079, -2.640e-5, -6.484e-5
0.078, -2.636e-5, -6.517e-5
0.077, -2.620e-5, -6.550e-5
0.076, -2.615e-5, -6.583e-5
0.075, -2.599e-5, -6.615e-5
0.074, -2.594e-5, -6.648e-5
0.073, -2.580e-5, -6.680e-5
0.072, -2.575e-5, -6.712e-5
0.071, -2.559e-5, -6.744e-5
0.070, -2.556e-5, -6.776e-5
0.069, -2.539e-5, -6.808e-5
0.068, -2.536e-5, -6.840e-5
0.067, -2.522e-5, -6.871e-5
0.066, -2.516e-5, -6.903e-5
0.065, -2.502e-5, -6.934e-5
0.064, -2.499e-5, -6.965e-5
0.063, -2.485e-5, -6.996e-5
0.062, -2.482e-5, -7.027e-5
0.061, -2.466e-5, -7.058e-5
0.060, -2.463e-5, -7.089e-5
0.059, -2.449e-5, -7.119e-5
0.058, -2.444e-5, -7.150e-5
0.057, -2.434e-5, -7.180e-5
0.056, -2.430e-5, -7.211e-5
0.055, -2.415e-5, -7.241e-5
0.054, -2.412e-5, -7.271e-5
0.053, -2.398e-5, -7.301e-5
0.052, -2.394e-5, -7.331e-5
0.051, -2.385e-5, -7.361e-5
0.050, -2.380e-5, -7.391e-5
0.049, -2.367e-5, -7.420e-5
0.048, -2.364e-5, -7.450e-5
0.047, -2.352e-5, -7.479e-5
0.046, -2.347e-5, -7.508e-5
0.045, -2.338e-5, -7.538e-5
0.044, -2.335e-5, -7.567e-5
0.043, -2.320e-5, -7.596e-5
0.042, -2.318e-5, -7.625e-5
0.041, -2.305e-5, -7.654e-5
0.040, -2.304e-5, -7.682e-5
0.039, -2.291e-5, -7.711e-5
0.038, -2.290e-5, -7.740e-5
0.037, -2.276e-5, -7.768e-5
0.036, -2.275e-5, -7.797e-5
0.035, -2.264e-5, -7.825e-5
0.034, -2.263e-5, -7.853e-5
0.033, -2.248e-5, -7.881e-5
0.032, -2.247e-5, -7.909e-5
0.031, -2.237e-5, -7.937e-5
0.030, -2.236e-5, -7.965e-5
0.029, -2.218e-5, -7.993e-5
0.028, -2.219e-5, -8.021e-5
0.027, -2.202e-5, -8.048e-5
0.026, -2.202e-5, -8.076e-5
0.025, -2.191e-5, -8.103e-5
0.024, -2.191e-5, -8.131e-5
0.023, -2.177e-5, -8.158e-5
0.022, -2.177e-5, -8.185e-5
0.021, -2.166e-5, -8.212e-5
0.020, -2.166e-5, -8.239e-5
0.019, -2.153e-5, -8.266e-5
0.018, -2.152e-5, -8.293e-5
0.017, -2.143e-5, -8.320e-5
0.016, -2.142e-5, -8.346e-5
0.015, -2.130e-5, -8.373e-5
0.014, -2.128e-5, -8.400e-5
0.013, -2.118e-5, -8.426e-5
0.012, -2.118e-5, -8.453e-5
0.011, -2.105e-5, -8.479e-5
0.010, -2.106e-5, -8.505e-5
0.009, -2.095e-5, -8.531e-5
0.008, -2.096e-5, -8.558e-5
0.007, -2.083e-5, -8.584e-5
0.006, -2.085e-5, -8.610e-5
0.005, -2.072e-5, -8.636e-5
0.004, -2.073e-5, -8.662e-5
0.003, -2.063e-5, -8.687e-5
0.002, -2.064e-5, -8.713e-5
0.001, -2.051e-5, -8.739e-5
0.000, -2.049e-5, -8.764e-5

Segment 4:
0.001, -2.024e-5, -8.790e-5
0.002, -2.022e-5, -8.815e-5
0.003, -2.005e-5, -8.840e-5
0.004, -2.004e-5, -8.865e-5
0.005, -1.993e-5, -8.890e-5
0.006, -1.991e-5, -8.915e-5
0.007, -1.977e-5, -8.940e-5
0.008, -1.976e-5, -8.964e-5
0.009, -1.966e-5, -8.989e-5
0.010, -1.965e-5, -9.013e-5
0.011, -1.952e-5, -9.038e-5
0.012, -1.951e-5, -9.062e-5
0.013, -1.944e-5, -9.087e-5
0.014, -1.942e-5, -9.111e-5
0.015, -1.930e-5, -9.135e-5
0.016, -1.929e-5, -9.159e-5
0.017, -1.917e-5, -9.183e-5
0.018, -1.919e-5, -9.207e-5
0.019, -1.904e-5, -9.231e-5
0.020, -1.905e-5, -9.255e-5
0.021, -1.896e-5, -9.278e-5
0.022, -1.896e-5, -9.302e-5
0.023, -1.883e-5, -9.326e-5
0.024, -1.884e-5, -9.349e-5
0.025, -1.874e-5, -9.372e-5
0.026, -1.875e-5, -9.396e-5
0.027, -1.863e-5, -9.419e-5
0.028, -1.864e-5, -9.443e-5
0.029, -1.853e-5, -9.466e-5
0.030, -1.853e-5, -9.489e-5
0.031, -1.846e-5, -9.512e-5
0.032, -1.846e-5, -9.535e-5
0.033, -1.833e-5, -9.558e-5
0.034, -1.834e-5, -9.581e-5
0.035, -1.824e-5, -9.604e-5
0.036, -1.825e-5, -9.626e-5
0.037, -1.813e-5, -9.649e-5
0.038, -1.814e-5, -9.672e-5
0.039, -1.804e-5, -9.694e-5
0.040, -1.805e-5, -9.717e-5
0.041, -1.796e-5, -9.739e-5
0.042, -1.797e-5, -9.762e-5
0.043, -1.785e-5, -9.784e-5
0.044, -1.786e-5, -9.806e-5
0.045, -1.777e-5, -9.829e-5
0.046, -1.777e-5, -9.851e-5
0.047, -1.769e-5, -9.873e-5
0.048, -1.769e-5, -9.895e-5
0.049, -1.758e-5, -9.917e-5
0.050, -1.758e-5, -9.939e-5
0.051, -1.752e-5, -9.961e-5
0.052, -1.751e-5, -9.983e-5
0.053, -1.743e-5, -1.000e-4
0.054, -1.741e-5, -1.003e-4
0.055, -1.732e-5, -1.005e-4
0.056, -1.732e-5, -1.007e-4
0.057, -1.723e-5, -1.009e-4
0.058, -1.725e-5, -1.011e-4
0.059, -1.713e-5, -1.013e-4
0.060, -1.714e-5, -1.016e-4
0.061, -1.706e-5, -1.018e-4
0.062, -1.706e-5, -1.020e-4
0.063, -1.698e-5, -1.022e-4
0.064, -1.699e-5, -1.024e-4
0.065, -1.688e-5, -1.026e-4
0.066, -1.689e-5, -1.028e-4
0.067, -1.680e-5, -1.030e-4
0.068, -1.681e-5, -1.033e-4
0.069, -1.673e-5, -1.035e-4
0.070, -1.674e-5, -1.037e-4
0.071, -1.663e-5, -1.039e-4
0.072, -1.663e-5, -1.041e-4
0.073, -1.656e-5, -1.043e-4
0.074, -1.656e-5, -1.045e-4
0.075, -1.649e-5, -1.047e-4
0.076, -1.649e-5, -1.049e-4
0.077, -1.639e-5, -1.051e-4
0.078, -1.638e-5, -1.053e-4
0.079, -1.630e-5, -1.055e-4
0.080, -1.631e-5, -1.057e-4
0.081, -1.621e-5, -1.059e-4
0.082, -1.622e-5, -1.061e-4
0.083, -1.611e-5, -1.063e-4
0.084, -1.612e-5, -1.065e-4
0.085, -1.606e-5, -1.067e-4
0.086, -1.605e-5, -1.069e-4
0.087, -1.596e-5, -1.071e-4
0.088, -1.596e-5, -1.073e-4
0.089, -1.586e-5, -1.075e-4
0.090, -1.586e-5, -1.077e-4
0.091, -1.580e-5, -1.079e-4
0.092, -1.580e-5, -1.081e-4
0.093, -1.571e-5, -1.083e-4
0.094, -1.569e-5, -1.085e-4
0.095, -1.562e-5, -1.087e-4
0.096, -1.561e-5, -1.089e-4
0.097, -1.556e-5, -1.091e-4
0.098, -1.555e-5, -1.093e-4
0.099, -1.544e-5, -1.095e-4
0.100, -1.544e-5, -1.097e-4
0.101, -1.533e-5, -1.099e-4
0.102, -1.535e-5, -1.101e-4
0.103, -1.522e-5, -1.103e-4
0.104, -1.526e-5, -1.105e-4
0.105, -1.512e-5, -1.106e-4
0.106, -1.514e-5, -1.108e-4
0.107, -1.504e-5, -1.110e-4
0.108, -1.507e-5, -1.112e-4
0.109, -1.493e-5, -1.114e-4
0.110, -1.495e-5, -1.116e-4
0.111, -1.484e-5, -1.118e-4
0.112, -1.486e-5, -1.119e-4
0.113, -1.474e-5, -1.121e-4
0.114, -1.476e-5, -1.123e-4
0.115, -1.463e-5, -1.125e-4
0.116, -1.464e-5, -1.127e-4
0.117, -1.456e-5, -1.129e-4
0.118, -1.456e-5, -1.130e-4
0.119, -1.441e-5, -1.132e-4
0.120, -1.443e-5, -1.134e-4
0.121, -1.428e-5, -1.136e-4
0.122, -1.431e-5, -1.138e-4
0.123, -1.415e-5, -1.139e-4
0.124, -1.416e-5, -1.141e-4
0.125, -1.407e-5, -1.143e-4
0.126, -1.406e-5, -1.145e-4
0.127, -1.393e-5, -1.146e-4
0.128, -1.392e-5, -1.148e-4
0.129, -1.380e-5, -1.150e-4
0.130, -1.381e-5, -1.152e-4
0.131, -1.366e-5, -1.153e-4
0.132, -1.365e-5, -1.155e-4
0.133, -1.355e-5, -1.157e-4
0.134, -1.351e-5, -1.158e-4
0.135, -1.338e-5, -1.160e-4
0.136, -1.337e-5, -1.162e-4
0.137, -1.321e-5, -1.163e-4
0.138, -1.321e-5, -1.165e-4
0.139, -1.308e-5, -1.167e-4
0.140, -1.306e-5, -1.168e-4
0.141, -1.291e-5, -1.170e-4
0.142, -1.289e-5, -1.172e-4
0.143, -1.274e-5, -1.173e-4
0.144, -1.270e-5, -1.175e-4
0.145, -1.259e-5, -1.176e-4
0.146, -1.255e-5, -1.178e-4
0.147, -1.238e-5, -1.179e-4
0.148, -1.234e-5, -1.181e-4
0.149, -1.218e-5, -1.183e-4
0.150, -1.214e-5, -1.184e-4
0.151, -1.198e-5, -1.186e-4
0.152, -1.192e-5, -1.187e-4
0.153, -1.175e-5, -1.188e-4
0.154, -1.170e-5, -1.190e-4
0.155, -1.154e-5, -1.191e-4
0.156, -1.147e-5, -1.193e-4
0.157, -1.128e-5, -1.194e-4
0.158, -1.121e-5, -1.196e-4
0.159, -1.103e-5, -1.197e-4
0.160, -1.096e-5, -1.198e-4
0.161, -1.076e-5, -1.200e-4
0.162, -1.070e-5, -1.201e-4
0.163, -1.049e-5, -1.202e-4
0.164, -1.041e-5, -1.204e-4
0.165, -1.021e-5, -1.205e-4
0.166, -1.010e-5, -1.206e-4
0.167, -9.908e-6, -1.207e-4
0.168, -9.774e-6, -1.209e-4
0.169, -9.576e-6, -1.210e-4
0.170, -9.460e-6, -1.211e-4
0.171, -9.224e-6, -1.212e-4
0.172, -9.097e-6, -1.213e-4
0.173, -8.874e-6, -1.214e-4
0.174, -8.733e-6, -1.216e-4
0.175, -8.500e-6, -1.217e-4
0.176, -8.316e-6, -1.218e-4
0.177, -8.093e-6, -1.219e-4
0.178, -7.933e-6, -1.220e-4
0.179, -7.686e-6, -1.221e-4
0.180, -7.506e-6, -1.222e-4
0.181, -7.230e-6, -1.222e-4
0.182, -7.035e-6, -1.223e-4
0.183, -6.770e-6, -1.224e-4
0.184, -6.529e-6, -1.225e-4
0.185, -6.204e-6, -1.226e-4
0.186, -6.012e-6, -1.227e-4
0.187, -5.692e-6, -1.227e-4
0.188, -5.470e-6, -1.228e-4
0.189, -5.134e-6, -1.229e-4
0.190, -4.900e-6, -1.229e-4
0.191, -4.587e-6, -1.230e-4
0.192, -4.325e-6, -1.230e-4
0.193, -3.982e-6, -1.231e-4
0.194, -3.737e-6, -1.231e-4
0.195, -3.345e-6, -1.232e-4
0.196, -3.081e-6, -1.232e-4
0.197, -2.716e-6, -1.232e-4
0.198, -2.399e-6, -1.233e-4
0.199, -2.035e-6, -1.233e-4
0.200, -1.707e-6, -1.233e-4
0.201, -1.303e-6, -1.233e-4
0.202, -9.850e-7, -1.233e-4
0.203, -5.573e-7, -1.234e-4
0.204, -2.183e-7, -1.234e-4
0.205, 2.536e-7, -1.234e-4
0.206, 5.647e-7, -1.233e-4
0.207, 1.120e-6, -1.233e-4
0.208, 1.444e-6, -1.233e-4
0.209, 1.987e-6, -1.233e-4
0.210, 2.292e-6, -1.233e-4
0.211, 2.864e-6, -1.232e-4
0.212, 3.189e-6, -1.232e-4
0.213, 3.758e-6, -1.231e-4
0.214, 4.137e-6, -1.231e-4
0.215, 4.683e-6, -1.230e-4
0.216, 5.080e-6, -1.230e-4
0.217, 5.662e-6, -1.229e-4
0.218, 6.058e-6, -1.228e-4
0.219, 6.669e-6, -1.227e-4
0.220, 7.051e-6, -1.226e-4
0.221, 7.669e-6, -1.225e-4
0.222, 8.126e-6, -1.224e-4
0.223, 8.747e-6, -1.223e-4
0.224, 9.238e-6, -1.222e-4
0.225, 9.899e-6, -1.221e-4
0.226, 1.033e-5, -1.220e-4
0.227, 1.102e-5, -1.218e-4
0.228, 1.146e-5, -1.217e-4
0.229, 1.214e-5, -1.215e-4
0.230, 1.264e-5, -1.214e-4
0.231, 1.331e-5, -1.212e-4
0.232, 1.383e-5, -1.210e-4
0.233, 1.449e-5, -1.209e-4
0.234, 1.498e-5, -1.207e-4
0.235, 1.570e-5, -1.205e-4
0.236, 1.620e-5, -1.203e-4
0.237, 1.697e-5, -1.201e-4
0.238, 1.750e-5, -1.198e-4
0.239, 1.821e-5, -1.196e-4
0.240, 1.875e-5, -1.194e-4
0.241, 1.948e-5, -1.191e-4
0.242, 2.000e-5, -1.189e-4
0.243, 2.077e-5, -1.186e-4
0.244, 2.129e-5, -1.184e-4
0.245, 2.205e-5, -1.181e-4
0.246, 2.260e-5, -1.178e-4
0.247, 2.330e-5, -1.175e-4
0.248, 2.389e-5, -1.172e-4
0.249, 2.468e-5, -1.169e-4
0.250, 2.523e-5, -1.166e-4
0.251, 2.603e-5, -1.163e-4
0.252, 2.654e-5, -1.159e-4
0.253, 2.730e-5, -1.156e-4
0.254, 2.787e-5, -1.152e-4
0.255, 2.857e-5, -1.149e-4
0.256, 2.918e-5, -1.145e-4
0.257, 2.990e-5, -1.141e-4
0.258, 3.042e-5, -1.138e-4
0.259, 3.117e-5, -1.134e-4
0.260, 3.171e-5, -1.130e-4
0.261, 3.244e-5, -1.126e-4
0.262, 3.298e-5, -1.122e-4
0.263, 3.368e-5, -1.117e-4
0.264, 3.421e-5, -1.113e-4
0.265, 3.490e-5, -1.109e-4
0.266, 3.540e-5, -1.104e-4
0.267, 3.614e-5, -1.100e-4
0.268, 3.660e-5, -1.095e-4
0.269, 3.729e-5, -1.091e-4
0.270, 3.778e-5, -1.086e-4
0.271, 3.842e-5, -1.081e-4
0.272, 3.891e-5, -1.076e-4
0.273, 3.956e-5, -1.071e-4
0.274, 3.998e-5, -1.066e-4
0.275, 4.070e-5, -1.061e-4
0.276, 4.111e-5, -1.056e-4
0.277, 4.173e-5, -1.051e-4
0.278, 4.212e-5, -1.046e-4
0.279, 4.269e-5, -1.040e-4
0.280, 4.310e-5, -1.035e-4
0.281, 4.365e-5, -1.029e-4
0.282, 4.399e-5, -1.024e-4
0.283, 4.456e-5, -1.018e-4
0.284, 4.485e-5, -1.013e-4
0.285, 4.538e-5, -1.007e-4
0.286, 4.569e-5, -1.001e-4
0.287, 4.613e-5, -9.955e-5
0.288, 4.644e-5, -9.897e-5
0.289, 4.687e-5, -9.839e-5
0.290, 4.712e-5, -9.780e-5
0.291, 4.758e-5, -9.720e-5
0.292, 4.775e-5, -9.661e-5
0.293, 4.817e-5, -9.601e-5
0.294, 4.836e-5, -9.540e-5
0.295, 4.871e-5, -9.479e-5
0.296, 4.889e-5, -9.418e-5
0.297, 4.921e-5, -9.357e-5
0.298, 4.932e-5, -9.295e-5
0.299, 4.963e-5, -9.233e-5
0.300, 4.968e-5, -9.171e-5
0.301, 4.995e-5, -9.108e-5
0.302, 5.003e-5, -9.046e-5
0.303, 5.023e-5, -8.983e-5
0.304, 5.030e-5, -8.920e-5
0.305, 5.048e-5, -8.857e-5
0.306, 5.045e-5, -8.794e-5
0.307, 5.063e-5, -8.731e-5
0.308, 5.059e-5, -8.667e-5
0.309, 5.074e-5, -8.604e-5
0.310, 5.068e-5, -8.541e-5
0.311, 5.076e-5, -8.477e-5
0.312, 5.068e-5, -8.414e-5
0.313, 5.076e-5, -8.350e-5
0.314, 5.061e-5, -8.287e-5
0.315, 5.068e-5, -8.224e-5
0.316, 5.052e-5, -8.161e-5
0.317, 5.054e-5, -8.098e-5
0.318, 5.036e-5, -8.035e-5
0.319, 5.034e-5, -7.972e-5
0.320, 5.017e-5, -7.909e-5
0.321, 5.013e-5, -7.846e-5
0.322, 4.988e-5, -7.784e-5
0.323, 4.987e-5, -7.722e-5
0.324, 4.961e-5, -7.660e-5
0.325, 4.956e-5, -7.598e-5
0.326, 4.930e-5, -7.536e-5
0.327, 4.919e-5, -7.475e-5
0.328, 4.894e-5, -7.413e-5
0.329, 4.884e-5, -7.352e-5
0.330, 4.853e-5, -7.292e-5
0.331, 4.843e-5, -7.231e-5
0.332, 4.810e-5, -7.171e-5
0.333, 4.798e-5, -7.111e-5
0.334, 4.764e-5, -7.051e-5
0.335, 4.751e-5, -6.992e-5
0.336, 4.718e-5, -6.933e-5
0.337, 4.703e-5, -6.874e-5
0.338, 4.667e-5, -6.816e-5
0.339, 4.654e-5, -6.758e-5
0.340, 4.618e-5, -6.700e-5
0.341, 4.601e-5, -6.643e-5
0.342, 4.568e-5, -6.585e-5
0.343, 4.550e-5, -6.529e-5
0.344, 4.517e-5, -6.472e-5
0.345, 4.497e-5, -6.416e-5
0.346, 4.462e-5, -6.360e-5
0.347, 4.447e-5, -6.305e-5
0.348, 4.408e-5, -6.249e-5
0.349, 4.391e-5, -6.195e-5
0.350, 4.356e-5, -6.140e-5
0.351, 4.339e-5, -6.086e-5
0.352, 4.303e-5, -6.032e-5
0.353, 4.284e-5, -5.979e-5
0.354, 4.248e-5, -5.925e-5
0.355, 4.232e-5, -5.872e-5
0.356, 4.196e-5, -5.820e-5
0.357, 4.179e-5, -5.768e-5
0.358, 4.143e-5, -5.716e-5
0.359, 4.127e-5, -5.664e-5
0.360, 4.091e-5, -5.613e-5
0.361, 4.077e-5, -5.562e-5
0.362, 4.037e-5, -5.512e-5
0.363, 4.023e-5, -5.462e-5
0.364, 3.982e-5, -5.412e-5
0.365, 3.967e-5, -5.362e-5
0.366, 3.934e-5, -5.313e-5
0.367, 3.916e-5, -5.264e-5
0.368, 3.883e-5, -5.216e-5
0.369, 3.868e-5, -5.167e-5
0.370, 3.834e-5, -5.119e-5
0.371, 3.820e-5, -5.072e-5
0.372, 3.787e-5, -5.024e-5
0.373, 3.772e-5, -4.977e-5
0.374, 3.740e-5, -4.930e-5
0.375, 3.727e-5, -4.884e-5
0.376, 3.693e-5, -4.838e-5
0.377, 3.682e-5, -4.792e-5
0.378, 3.648e-5, -4.746e-5
0.379, 3.639e-5, -4.700e-5
0.380, 3.605e-5, -4.655e-5
0.381, 3.593e-5, -4.610e-5
0.382, 3.563e-5, -4.566e-5
0.383, 3.550e-5, -4.522e-5
0.384, 3.520e-5, -4.478e-5
0.385, 3.509e-5, -4.434e-5
0.386, 3.478e-5, -4.390e-5
0.387, 3.469e-5, -4.347e-5
0.388, 3.439e-5, -4.304e-5
0.389, 3.428e-5, -4.261e-5
0.390, 3.399e-5, -4.219e-5
0.391, 3.391e-5, -4.176e-5
0.392, 3.360e-5, -4.134e-5
0.393, 3.353e-5, -4.092e-5
0.394, 3.324e-5, -4.051e-5
0.395, 3.316e-5, -4.009e-5
0.396, 3.287e-5, -3.968e-5
0.397, 3.279e-5, -3.927e-5
0.398, 3.251e-5, -3.887e-5
0.399, 3.246e-5, -3.846e-5
0.400, 3.220e-5, -3.806e-5
0.401, 3.212e-5, -3.766e-5
0.402, 3.185e-5, -3.726e-5
0.403, 3.181e-5, -3.686e-5
0.404, 3.153e-5, -3.647e-5
0.405, 3.148e-5, -3.607e-5
0.406, 3.121e-5, -3.568e-5
0.407, 3.110e-5, -3.529e-5
0.408, 3.088e-5, -3.491e-5
0.409, 3.082e-5, -3.452e-5
0.410, 3.057e-5, -3.414e-5
0.411, 3.053e-5, -3.376e-5
0.412, 3.029e-5, -3.338e-5
0.413, 3.021e-5, -3.300e-5
0.414, 3.000e-5, -3.263e-5
0.415, 2.994e-5, -3.225e-5
0.416, 2.970e-5, -3.188e-5
0.417, 2.965e-5, -3.151e-5
0.418, 2.943e-5, -3.114e-5
0.419, 2.937e-5, -3.078e-5
0.420, 2.914e-5, -3.041e-5
0.421, 2.910e-5, -3.005e-5
0.422, 2.888e-5, -2.969e-5
0.423, 2.885e-5, -2.933e-5
0.424, 2.862e-5, -2.897e-5
0.425, 2.860e-5, -2.861e-5
0.426, 2.836e-5, -2.826e-5
0.427, 2.834e-5, -2.790e-5
