Mar. 30, 2023   17:00:04
Cyclic Voltammetry
File: 10mmol160mvs
Data Source:  Experiment
Instrument Model:  CHI600B
Header: 
Note: 

Init E (V) = 0.268
High E (V) = 0.5
Low E (V) = 0
Init P/N = N
Scan Rate (V/s) = 0.16
Segment = 4
Sample Interval (V) = 0.001
Quiet Time (sec) = 2
Sensitivity (A/V) = 5e-5

Segment 1:

Segment 2:
Ep = 0.320V
ip = 7.718e-5A
Ah = 3.937e-5C

Segment 3:
Ep = 0.198V
ip = -7.269e-5A
Ah = -3.702e-5C

Segment 4:
Ep = 0.318V
ip = 7.561e-5A
Ah = 3.751e-5C

Potential/V, Current/A, Charge/C

Segment 1:
0.267, -7.933e-8, -4.958e-10
0.266, -2.028e-6, -1.317e-8
0.265, -3.845e-6, -3.720e-8
0.264, -5.616e-6, -7.230e-8
0.263, -7.258e-6, -1.177e-7
0.262, -8.785e-6, -1.726e-7
0.261, -1.036e-5, -2.373e-7
0.260, -1.177e-5, -3.109e-7
0.259, -1.310e-5, -3.928e-7
0.258, -1.453e-5, -4.836e-7
0.257, -1.590e-5, -5.830e-7
0.256, -1.711e-5, -6.899e-7
0.255, -1.838e-5, -8.048e-7
0.254, -1.965e-5, -9.276e-7
0.253, -2.076e-5, -1.057e-6
0.252, -2.196e-5, -1.195e-6
0.251, -2.320e-5, -1.340e-6
0.250, -2.426e-5, -1.491e-6
0.249, -2.535e-5, -1.650e-6
0.248, -2.649e-5, -1.815e-6
0.247, -2.749e-5, -1.987e-6
0.246, -2.846e-5, -2.165e-6
0.245, -2.954e-5, -2.350e-6
0.244, -3.048e-5, -2.540e-6
0.243, -3.141e-5, -2.736e-6
0.242, -3.240e-5, -2.939e-6
0.241, -3.336e-5, -3.147e-6
0.240, -3.419e-5, -3.361e-6
0.239, -3.510e-5, -3.580e-6
0.238, -3.600e-5, -3.805e-6
0.237, -3.678e-5, -4.035e-6
0.236, -3.764e-5, -4.270e-6
0.235, -3.853e-5, -4.511e-6
0.234, -3.928e-5, -4.757e-6
0.233, -4.003e-5, -5.007e-6
0.232, -4.083e-5, -5.262e-6
0.231, -4.153e-5, -5.522e-6
0.230, -4.219e-5, -5.785e-6
0.229, -4.296e-5, -6.054e-6
0.228, -4.361e-5, -6.326e-6
0.227, -4.418e-5, -6.603e-6
0.226, -4.490e-5, -6.883e-6
0.225, -4.550e-5, -7.168e-6
0.224, -4.603e-5, -7.455e-6
0.223, -4.665e-5, -7.747e-6
0.222, -4.722e-5, -8.042e-6
0.221, -4.768e-5, -8.340e-6
0.220, -4.820e-5, -8.641e-6
0.219, -4.874e-5, -8.946e-6
0.218, -4.914e-5, -9.253e-6
0.217, -4.958e-5, -9.563e-6
0.216, -5.006e-5, -9.876e-6
0.215, -5.040e-5, -1.019e-5
0.214, -5.078e-5, -1.051e-5
0.213, -5.120e-5, -1.083e-5
0.212, -5.152e-5, -1.115e-5
0.211, -5.180e-5, -1.147e-5
0.210, -5.215e-5, -1.180e-5
0.209, -5.242e-5, -1.213e-5
0.208, -5.262e-5, -1.246e-5
0.207, -5.289e-5, -1.279e-5
0.206, -5.313e-5, -1.312e-5
0.205, -5.325e-5, -1.345e-5
0.204, -5.345e-5, -1.379e-5
0.203, -5.370e-5, -1.412e-5
0.202, -5.381e-5, -1.446e-5
0.201, -5.392e-5, -1.479e-5
0.200, -5.409e-5, -1.513e-5
0.199, -5.414e-5, -1.547e-5
0.198, -5.418e-5, -1.581e-5
0.197, -5.429e-5, -1.615e-5
0.196, -5.433e-5, -1.649e-5
0.195, -5.429e-5, -1.683e-5
0.194, -5.436e-5, -1.717e-5
0.193, -5.436e-5, -1.751e-5
0.192, -5.429e-5, -1.785e-5
0.191, -5.428e-5, -1.819e-5
0.190, -5.425e-5, -1.853e-5
0.189, -5.417e-5, -1.886e-5
0.188, -5.411e-5, -1.920e-5
0.187, -5.404e-5, -1.954e-5
0.186, -5.389e-5, -1.988e-5
0.185, -5.379e-5, -2.021e-5
0.184, -5.371e-5, -2.055e-5
0.183, -5.350e-5, -2.088e-5
0.182, -5.331e-5, -2.122e-5
0.181, -5.319e-5, -2.155e-5
0.180, -5.301e-5, -2.188e-5
0.179, -5.281e-5, -2.221e-5
0.178, -5.268e-5, -2.254e-5
0.177, -5.248e-5, -2.287e-5
0.176, -5.225e-5, -2.319e-5
0.175, -5.208e-5, -2.352e-5
0.174, -5.189e-5, -2.384e-5
0.173, -5.166e-5, -2.417e-5
0.172, -5.145e-5, -2.449e-5
0.171, -5.124e-5, -2.481e-5
0.170, -5.097e-5, -2.513e-5
0.169, -5.076e-5, -2.544e-5
0.168, -5.054e-5, -2.576e-5
0.167, -5.027e-5, -2.607e-5
0.166, -5.001e-5, -2.639e-5
0.165, -4.980e-5, -2.670e-5
0.164, -4.954e-5, -2.701e-5
0.163, -4.927e-5, -2.732e-5
0.162, -4.905e-5, -2.762e-5
0.161, -4.880e-5, -2.793e-5
0.160, -4.852e-5, -2.823e-5
0.159, -4.829e-5, -2.853e-5
0.158, -4.803e-5, -2.883e-5
0.157, -4.775e-5, -2.913e-5
0.156, -4.751e-5, -2.943e-5
0.155, -4.726e-5, -2.972e-5
0.154, -4.698e-5, -3.002e-5
0.153, -4.673e-5, -3.031e-5
0.152, -4.647e-5, -3.060e-5
0.151, -4.619e-5, -3.089e-5
0.150, -4.594e-5, -3.117e-5
0.149, -4.571e-5, -3.146e-5
0.148, -4.541e-5, -3.174e-5
0.147, -4.516e-5, -3.203e-5
0.146, -4.493e-5, -3.231e-5
0.145, -4.467e-5, -3.259e-5
0.144, -4.441e-5, -3.286e-5
0.143, -4.418e-5, -3.314e-5
0.142, -4.394e-5, -3.341e-5
0.141, -4.367e-5, -3.369e-5
0.140, -4.345e-5, -3.396e-5
0.139, -4.322e-5, -3.423e-5
0.138, -4.296e-5, -3.450e-5
0.137, -4.273e-5, -3.476e-5
0.136, -4.249e-5, -3.503e-5
0.135, -4.225e-5, -3.529e-5
0.134, -4.202e-5, -3.556e-5
0.133, -4.182e-5, -3.582e-5
0.132, -4.157e-5, -3.608e-5
0.131, -4.135e-5, -3.634e-5
0.130, -4.115e-5, -3.659e-5
0.129, -4.093e-5, -3.685e-5
0.128, -4.069e-5, -3.710e-5
0.127, -4.049e-5, -3.736e-5
0.126, -4.027e-5, -3.761e-5
0.125, -4.005e-5, -3.786e-5
0.124, -3.987e-5, -3.811e-5
0.123, -3.966e-5, -3.836e-5
0.122, -3.946e-5, -3.860e-5
0.121, -3.926e-5, -3.885e-5
0.120, -3.906e-5, -3.909e-5
0.119, -3.885e-5, -3.934e-5
0.118, -3.865e-5, -3.958e-5
0.117, -3.847e-5, -3.982e-5
0.116, -3.828e-5, -4.006e-5
0.115, -3.808e-5, -4.029e-5
0.114, -3.790e-5, -4.053e-5
0.113, -3.765e-5, -4.077e-5
0.112, -3.748e-5, -4.100e-5
0.111, -3.730e-5, -4.123e-5
0.110, -3.712e-5, -4.147e-5
0.109, -3.694e-5, -4.170e-5
0.108, -3.678e-5, -4.193e-5
0.107, -3.660e-5, -4.216e-5
0.106, -3.642e-5, -4.238e-5
0.105, -3.627e-5, -4.261e-5
0.104, -3.611e-5, -4.284e-5
0.103, -3.594e-5, -4.306e-5
0.102, -3.578e-5, -4.328e-5
0.101, -3.562e-5, -4.351e-5
0.100, -3.546e-5, -4.373e-5
0.099, -3.530e-5, -4.395e-5
0.098, -3.515e-5, -4.417e-5
0.097, -3.502e-5, -4.439e-5
0.096, -3.484e-5, -4.460e-5
0.095, -3.470e-5, -4.482e-5
0.094, -3.455e-5, -4.504e-5
0.093, -3.439e-5, -4.525e-5
0.092, -3.427e-5, -4.547e-5
0.091, -3.414e-5, -4.568e-5
0.090, -3.398e-5, -4.589e-5
0.089, -3.384e-5, -4.610e-5
0.088, -3.370e-5, -4.631e-5
0.087, -3.357e-5, -4.652e-5
0.086, -3.343e-5, -4.673e-5
0.085, -3.331e-5, -4.694e-5
0.084, -3.317e-5, -4.715e-5
0.083, -3.304e-5, -4.736e-5
0.082, -3.291e-5, -4.756e-5
0.081, -3.278e-5, -4.777e-5
0.080, -3.265e-5, -4.797e-5
0.079, -3.254e-5, -4.817e-5
0.078, -3.242e-5, -4.838e-5
0.077, -3.228e-5, -4.858e-5
0.076, -3.219e-5, -4.878e-5
0.075, -3.207e-5, -4.898e-5
0.074, -3.193e-5, -4.918e-5
0.073, -3.182e-5, -4.938e-5
0.072, -3.170e-5, -4.958e-5
0.071, -3.159e-5, -4.977e-5
0.070, -3.148e-5, -4.997e-5
0.069, -3.138e-5, -5.017e-5
0.068, -3.125e-5, -5.036e-5
0.067, -3.117e-5, -5.056e-5
0.066, -3.104e-5, -5.075e-5
0.065, -3.092e-5, -5.094e-5
0.064, -3.080e-5, -5.114e-5
0.063, -3.071e-5, -5.133e-5
0.062, -3.060e-5, -5.152e-5
0.061, -3.050e-5, -5.171e-5
0.060, -3.042e-5, -5.190e-5
0.059, -3.030e-5, -5.209e-5
0.058, -3.021e-5, -5.228e-5
0.057, -3.012e-5, -5.247e-5
0.056, -3.002e-5, -5.265e-5
0.055, -2.993e-5, -5.284e-5
0.054, -2.983e-5, -5.303e-5
0.053, -2.975e-5, -5.321e-5
0.052, -2.966e-5, -5.340e-5
0.051, -2.956e-5, -5.358e-5
0.050, -2.947e-5, -5.377e-5
0.049, -2.938e-5, -5.395e-5
0.048, -2.928e-5, -5.413e-5
0.047, -2.922e-5, -5.432e-5
0.046, -2.910e-5, -5.450e-5
0.045, -2.901e-5, -5.468e-5
0.044, -2.894e-5, -5.486e-5
0.043, -2.884e-5, -5.504e-5
0.042, -2.877e-5, -5.522e-5
0.041, -2.869e-5, -5.540e-5
0.040, -2.860e-5, -5.558e-5
0.039, -2.851e-5, -5.576e-5
0.038, -2.844e-5, -5.594e-5
0.037, -2.835e-5, -5.611e-5
0.036, -2.828e-5, -5.629e-5
0.035, -2.821e-5, -5.647e-5
0.034, -2.812e-5, -5.664e-5
0.033, -2.803e-5, -5.682e-5
0.032, -2.795e-5, -5.699e-5
0.031, -2.788e-5, -5.717e-5
0.030, -2.780e-5, -5.734e-5
0.029, -2.773e-5, -5.751e-5
0.028, -2.767e-5, -5.769e-5
0.027, -2.758e-5, -5.786e-5
0.026, -2.751e-5, -5.803e-5
0.025, -2.744e-5, -5.820e-5
0.024, -2.736e-5, -5.837e-5
0.023, -2.729e-5, -5.854e-5
0.022, -2.723e-5, -5.871e-5
0.021, -2.715e-5, -5.888e-5
0.020, -2.706e-5, -5.905e-5
0.019, -2.700e-5, -5.922e-5
0.018, -2.693e-5, -5.939e-5
0.017, -2.685e-5, -5.956e-5
0.016, -2.680e-5, -5.972e-5
0.015, -2.674e-5, -5.989e-5
0.014, -2.666e-5, -6.006e-5
0.013, -2.659e-5, -6.022e-5
0.012, -2.654e-5, -6.039e-5
0.011, -2.647e-5, -6.056e-5
0.010, -2.640e-5, -6.072e-5
0.009, -2.634e-5, -6.089e-5
0.008, -2.629e-5, -6.105e-5
0.007, -2.622e-5, -6.121e-5
0.006, -2.615e-5, -6.138e-5
0.005, -2.609e-5, -6.154e-5
0.004, -2.602e-5, -6.170e-5
0.003, -2.596e-5, -6.186e-5
0.002, -2.589e-5, -6.203e-5
0.001, -2.584e-5, -6.219e-5
-0.000, -2.566e-5, -6.235e-5

Segment 2:
0.001, -2.539e-5, -6.251e-5
0.002, -2.528e-5, -6.267e-5
0.003, -2.514e-5, -6.282e-5
0.004, -2.506e-5, -6.298e-5
0.005, -2.496e-5, -6.313e-5
0.006, -2.487e-5, -6.329e-5
0.007, -2.481e-5, -6.345e-5
0.008, -2.471e-5, -6.360e-5
0.009, -2.462e-5, -6.375e-5
0.010, -2.456e-5, -6.391e-5
0.011, -2.448e-5, -6.406e-5
0.012, -2.439e-5, -6.421e-5
0.013, -2.434e-5, -6.436e-5
0.014, -2.426e-5, -6.452e-5
0.015, -2.418e-5, -6.467e-5
0.016, -2.411e-5, -6.482e-5
0.017, -2.405e-5, -6.497e-5
0.018, -2.396e-5, -6.512e-5
0.019, -2.389e-5, -6.527e-5
0.020, -2.385e-5, -6.542e-5
0.021, -2.378e-5, -6.557e-5
0.022, -2.369e-5, -6.571e-5
0.023, -2.364e-5, -6.586e-5
0.024, -2.359e-5, -6.601e-5
0.025, -2.350e-5, -6.616e-5
0.026, -2.344e-5, -6.630e-5
0.027, -2.339e-5, -6.645e-5
0.028, -2.333e-5, -6.659e-5
0.029, -2.325e-5, -6.674e-5
0.030, -2.319e-5, -6.688e-5
0.031, -2.313e-5, -6.703e-5
0.032, -2.306e-5, -6.717e-5
0.033, -2.300e-5, -6.732e-5
0.034, -2.293e-5, -6.746e-5
0.035, -2.289e-5, -6.760e-5
0.036, -2.284e-5, -6.775e-5
0.037, -2.277e-5, -6.789e-5
0.038, -2.270e-5, -6.803e-5
0.039, -2.266e-5, -6.817e-5
0.040, -2.261e-5, -6.831e-5
0.041, -2.253e-5, -6.845e-5
0.042, -2.247e-5, -6.859e-5
0.043, -2.243e-5, -6.873e-5
0.044, -2.237e-5, -6.887e-5
0.045, -2.231e-5, -6.901e-5
0.046, -2.224e-5, -6.915e-5
0.047, -2.215e-5, -6.929e-5
0.048, -2.209e-5, -6.943e-5
0.049, -2.202e-5, -6.957e-5
0.050, -2.197e-5, -6.970e-5
0.051, -2.191e-5, -6.984e-5
0.052, -2.188e-5, -6.998e-5
0.053, -2.181e-5, -7.011e-5
0.054, -2.175e-5, -7.025e-5
0.055, -2.170e-5, -7.039e-5
0.056, -2.166e-5, -7.052e-5
0.057, -2.159e-5, -7.066e-5
0.058, -2.154e-5, -7.079e-5
0.059, -2.149e-5, -7.092e-5
0.060, -2.144e-5, -7.106e-5
0.061, -2.140e-5, -7.119e-5
0.062, -2.134e-5, -7.133e-5
0.063, -2.127e-5, -7.146e-5
0.064, -2.121e-5, -7.159e-5
0.065, -2.118e-5, -7.172e-5
0.066, -2.112e-5, -7.186e-5
0.067, -2.106e-5, -7.199e-5
0.068, -2.101e-5, -7.212e-5
0.069, -2.096e-5, -7.225e-5
0.070, -2.091e-5, -7.238e-5
0.071, -2.086e-5, -7.251e-5
0.072, -2.079e-5, -7.264e-5
0.073, -2.074e-5, -7.277e-5
0.074, -2.070e-5, -7.290e-5
0.075, -2.066e-5, -7.303e-5
0.076, -2.059e-5, -7.316e-5
0.077, -2.054e-5, -7.329e-5
0.078, -2.049e-5, -7.341e-5
0.079, -2.045e-5, -7.354e-5
0.080, -2.040e-5, -7.367e-5
0.081, -2.035e-5, -7.380e-5
0.082, -2.029e-5, -7.392e-5
0.083, -2.023e-5, -7.405e-5
0.084, -2.019e-5, -7.418e-5
0.085, -2.012e-5, -7.430e-5
0.086, -2.005e-5, -7.443e-5
0.087, -2.001e-5, -7.455e-5
0.088, -1.997e-5, -7.468e-5
0.089, -1.991e-5, -7.480e-5
0.090, -1.985e-5, -7.493e-5
0.091, -1.979e-5, -7.505e-5
0.092, -1.974e-5, -7.517e-5
0.093, -1.969e-5, -7.530e-5
0.094, -1.964e-5, -7.542e-5
0.095, -1.956e-5, -7.554e-5
0.096, -1.951e-5, -7.566e-5
0.097, -1.948e-5, -7.578e-5
0.098, -1.943e-5, -7.591e-5
0.099, -1.935e-5, -7.603e-5
0.100, -1.930e-5, -7.615e-5
0.101, -1.923e-5, -7.627e-5
0.102, -1.916e-5, -7.639e-5
0.103, -1.910e-5, -7.651e-5
0.104, -1.904e-5, -7.663e-5
0.105, -1.898e-5, -7.674e-5
0.106, -1.893e-5, -7.686e-5
0.107, -1.885e-5, -7.698e-5
0.108, -1.878e-5, -7.710e-5
0.109, -1.874e-5, -7.721e-5
0.110, -1.869e-5, -7.733e-5
0.111, -1.860e-5, -7.745e-5
0.112, -1.853e-5, -7.756e-5
0.113, -1.849e-5, -7.768e-5
0.114, -1.843e-5, -7.779e-5
0.115, -1.833e-5, -7.791e-5
0.116, -1.827e-5, -7.802e-5
0.117, -1.820e-5, -7.814e-5
0.118, -1.810e-5, -7.825e-5
0.119, -1.805e-5, -7.836e-5
0.120, -1.799e-5, -7.848e-5
0.121, -1.789e-5, -7.859e-5
0.122, -1.781e-5, -7.870e-5
0.123, -1.776e-5, -7.881e-5
0.124, -1.766e-5, -7.892e-5
0.125, -1.758e-5, -7.903e-5
0.126, -1.753e-5, -7.914e-5
0.127, -1.743e-5, -7.925e-5
0.128, -1.733e-5, -7.936e-5
0.129, -1.726e-5, -7.946e-5
0.130, -1.716e-5, -7.957e-5
0.131, -1.706e-5, -7.968e-5
0.132, -1.700e-5, -7.978e-5
0.133, -1.689e-5, -7.989e-5
0.134, -1.679e-5, -7.999e-5
0.135, -1.671e-5, -8.010e-5
0.136, -1.660e-5, -8.020e-5
0.137, -1.651e-5, -8.031e-5
0.138, -1.640e-5, -8.041e-5
0.139, -1.630e-5, -8.051e-5
0.140, -1.617e-5, -8.061e-5
0.141, -1.606e-5, -8.071e-5
0.142, -1.597e-5, -8.081e-5
0.143, -1.584e-5, -8.091e-5
0.144, -1.572e-5, -8.101e-5
0.145, -1.562e-5, -8.111e-5
0.146, -1.551e-5, -8.120e-5
0.147, -1.534e-5, -8.130e-5
0.148, -1.523e-5, -8.139e-5
0.149, -1.509e-5, -8.149e-5
0.150, -1.493e-5, -8.158e-5
0.151, -1.482e-5, -8.167e-5
0.152, -1.468e-5, -8.177e-5
0.153, -1.453e-5, -8.186e-5
0.154, -1.435e-5, -8.195e-5
0.155, -1.420e-5, -8.204e-5
0.156, -1.405e-5, -8.212e-5
0.157, -1.387e-5, -8.221e-5
0.158, -1.372e-5, -8.230e-5
0.159, -1.356e-5, -8.238e-5
0.160, -1.336e-5, -8.246e-5
0.161, -1.320e-5, -8.255e-5
0.162, -1.302e-5, -8.263e-5
0.163, -1.281e-5, -8.271e-5
0.164, -1.265e-5, -8.279e-5
0.165, -1.245e-5, -8.287e-5
0.166, -1.221e-5, -8.294e-5
0.167, -1.202e-5, -8.302e-5
0.168, -1.183e-5, -8.309e-5
0.169, -1.161e-5, -8.316e-5
0.170, -1.137e-5, -8.323e-5
0.171, -1.116e-5, -8.330e-5
0.172, -1.091e-5, -8.337e-5
0.173, -1.066e-5, -8.344e-5
0.174, -1.043e-5, -8.350e-5
0.175, -1.017e-5, -8.357e-5
0.176, -9.898e-6, -8.363e-5
0.177, -9.663e-6, -8.369e-5
0.178, -9.374e-6, -8.375e-5
0.179, -9.079e-6, -8.381e-5
0.180, -8.817e-6, -8.386e-5
0.181, -8.520e-6, -8.391e-5
0.182, -8.195e-6, -8.396e-5
0.183, -7.896e-6, -8.401e-5
0.184, -7.602e-6, -8.406e-5
0.185, -7.238e-6, -8.411e-5
0.186, -6.905e-6, -8.415e-5
0.187, -6.581e-6, -8.419e-5
0.188, -6.171e-6, -8.423e-5
0.189, -5.805e-6, -8.427e-5
0.190, -5.459e-6, -8.430e-5
0.191, -5.096e-6, -8.433e-5
0.192, -4.686e-6, -8.436e-5
0.193, -4.322e-6, -8.439e-5
0.194, -3.941e-6, -8.441e-5
0.195, -3.486e-6, -8.443e-5
0.196, -3.100e-6, -8.445e-5
0.197, -2.696e-6, -8.447e-5
0.198, -2.219e-6, -8.448e-5
0.199, -1.791e-6, -8.450e-5
0.200, -1.363e-6, -8.450e-5
0.201, -8.734e-7, -8.451e-5
0.202, -3.852e-7, -8.451e-5
0.203, 5.649e-8, -8.451e-5
0.204, 6.093e-7, -8.451e-5
0.205, 1.124e-6, -8.450e-5
0.206, 1.604e-6, -8.449e-5
0.207, 2.144e-6, -8.448e-5
0.208, 2.701e-6, -8.446e-5
0.209, 3.204e-6, -8.444e-5
0.210, 3.737e-6, -8.442e-5
0.211, 4.360e-6, -8.439e-5
0.212, 4.885e-6, -8.436e-5
0.213, 5.432e-6, -8.433e-5
0.214, 6.080e-6, -8.429e-5
0.215, 6.642e-6, -8.425e-5
0.216, 7.206e-6, -8.420e-5
0.217, 7.861e-6, -8.415e-5
0.218, 8.497e-6, -8.410e-5
0.219, 9.132e-6, -8.404e-5
0.220, 9.799e-6, -8.398e-5
0.221, 1.047e-5, -8.392e-5
0.222, 1.108e-5, -8.385e-5
0.223, 1.175e-5, -8.377e-5
0.224, 1.248e-5, -8.369e-5
0.225, 1.310e-5, -8.361e-5
0.226, 1.377e-5, -8.353e-5
0.227, 1.454e-5, -8.344e-5
0.228, 1.520e-5, -8.334e-5
0.229, 1.590e-5, -8.324e-5
0.230, 1.669e-5, -8.314e-5
0.231, 1.741e-5, -8.303e-5
0.232, 1.810e-5, -8.291e-5
0.233, 1.888e-5, -8.280e-5
0.234, 1.964e-5, -8.267e-5
0.235, 2.034e-5, -8.255e-5
0.236, 2.113e-5, -8.241e-5
0.237, 2.195e-5, -8.228e-5
0.238, 2.265e-5, -8.214e-5
0.239, 2.345e-5, -8.199e-5
0.240, 2.430e-5, -8.184e-5
0.241, 2.509e-5, -8.168e-5
0.242, 2.586e-5, -8.152e-5
0.243, 2.671e-5, -8.135e-5
0.244, 2.748e-5, -8.118e-5
0.245, 2.824e-5, -8.100e-5
0.246, 2.910e-5, -8.082e-5
0.247, 2.992e-5, -8.064e-5
0.248, 3.067e-5, -8.044e-5
0.249, 3.156e-5, -8.025e-5
0.250, 3.238e-5, -8.004e-5
0.251, 3.314e-5, -7.984e-5
0.252, 3.397e-5, -7.962e-5
0.253, 3.484e-5, -7.941e-5
0.254, 3.559e-5, -7.918e-5
0.255, 3.642e-5, -7.896e-5
0.256, 3.731e-5, -7.872e-5
0.257, 3.806e-5, -7.849e-5
0.258, 3.885e-5, -7.824e-5
0.259, 3.975e-5, -7.799e-5
0.260, 4.058e-5, -7.774e-5
0.261, 4.135e-5, -7.748e-5
0.262, 4.221e-5, -7.722e-5
0.263, 4.300e-5, -7.695e-5
0.264, 4.376e-5, -7.668e-5
0.265, 4.462e-5, -7.640e-5
0.266, 4.543e-5, -7.611e-5
0.267, 4.612e-5, -7.583e-5
0.268, 4.695e-5, -7.553e-5
0.269, 4.777e-5, -7.523e-5
0.270, 4.848e-5, -7.493e-5
0.271, 4.924e-5, -7.462e-5
0.272, 5.004e-5, -7.431e-5
0.273, 5.074e-5, -7.399e-5
0.274, 5.146e-5, -7.367e-5
0.275, 5.226e-5, -7.334e-5
0.276, 5.295e-5, -7.301e-5
0.277, 5.359e-5, -7.268e-5
0.278, 5.435e-5, -7.234e-5
0.279, 5.506e-5, -7.199e-5
0.280, 5.564e-5, -7.165e-5
0.281, 5.640e-5, -7.129e-5
0.282, 5.707e-5, -7.094e-5
0.283, 5.766e-5, -7.058e-5
0.284, 5.830e-5, -7.021e-5
0.285, 5.894e-5, -6.984e-5
0.286, 5.948e-5, -6.947e-5
0.287, 6.007e-5, -6.910e-5
0.288, 6.071e-5, -6.872e-5
0.289, 6.121e-5, -6.834e-5
0.290, 6.171e-5, -6.795e-5
0.291, 6.228e-5, -6.756e-5
0.292, 6.277e-5, -6.717e-5
0.293, 6.321e-5, -6.677e-5
0.294, 6.375e-5, -6.637e-5
0.295, 6.422e-5, -6.597e-5
0.296, 6.462e-5, -6.557e-5
0.297, 6.505e-5, -6.516e-5
0.298, 6.546e-5, -6.475e-5
0.299, 6.577e-5, -6.434e-5
0.300, 6.617e-5, -6.393e-5
0.301, 6.658e-5, -6.351e-5
0.302, 6.683e-5, -6.310e-5
0.303, 6.714e-5, -6.268e-5
0.304, 6.747e-5, -6.225e-5
0.305, 6.768e-5, -6.183e-5
0.306, 6.792e-5, -6.141e-5
0.307, 6.822e-5, -6.098e-5
0.308, 6.840e-5, -6.055e-5
0.309, 6.856e-5, -6.012e-5
0.310, 6.880e-5, -5.969e-5
0.311, 6.892e-5, -5.926e-5
0.312, 6.899e-5, -5.883e-5
0.313, 6.915e-5, -5.840e-5
0.314, 6.926e-5, -5.797e-5
0.315, 6.928e-5, -5.753e-5
0.316, 6.936e-5, -5.710e-5
0.317, 6.941e-5, -5.667e-5
0.318, 6.939e-5, -5.623e-5
0.319, 6.939e-5, -5.580e-5
0.320, 6.943e-5, -5.537e-5
0.321, 6.932e-5, -5.493e-5
0.322, 6.927e-5, -5.450e-5
0.323, 6.925e-5, -5.407e-5
0.324, 6.913e-5, -5.363e-5
0.325, 6.901e-5, -5.320e-5
0.326, 6.895e-5, -5.277e-5
0.327, 6.881e-5, -5.234e-5
0.328, 6.863e-5, -5.191e-5
0.329, 6.853e-5, -5.149e-5
0.330, 6.834e-5, -5.106e-5
0.331, 6.810e-5, -5.063e-5
0.332, 6.793e-5, -5.021e-5
0.333, 6.774e-5, -4.978e-5
0.334, 6.749e-5, -4.936e-5
0.335, 6.726e-5, -4.894e-5
0.336, 6.706e-5, -4.852e-5
0.337, 6.675e-5, -4.811e-5
0.338, 6.649e-5, -4.769e-5
0.339, 6.625e-5, -4.728e-5
0.340, 6.595e-5, -4.686e-5
0.341, 6.564e-5, -4.645e-5
0.342, 6.539e-5, -4.605e-5
0.343, 6.508e-5, -4.564e-5
0.344, 6.474e-5, -4.523e-5
0.345, 6.446e-5, -4.483e-5
0.346, 6.414e-5, -4.443e-5
0.347, 6.379e-5, -4.403e-5
0.348, 6.348e-5, -4.363e-5
0.349, 6.316e-5, -4.324e-5
0.350, 6.279e-5, -4.285e-5
0.351, 6.242e-5, -4.246e-5
0.352, 6.212e-5, -4.207e-5
0.353, 6.173e-5, -4.168e-5
0.354, 6.138e-5, -4.130e-5
0.355, 6.108e-5, -4.092e-5
0.356, 6.071e-5, -4.054e-5
0.357, 6.034e-5, -4.016e-5
0.358, 6.003e-5, -3.979e-5
0.359, 5.966e-5, -3.941e-5
0.360, 5.930e-5, -3.904e-5
0.361, 5.897e-5, -3.867e-5
0.362, 5.862e-5, -3.831e-5
0.363, 5.825e-5, -3.794e-5
0.364, 5.792e-5, -3.758e-5
0.365, 5.758e-5, -3.722e-5
0.366, 5.721e-5, -3.686e-5
0.367, 5.688e-5, -3.651e-5
0.368, 5.655e-5, -3.616e-5
0.369, 5.618e-5, -3.580e-5
0.370, 5.580e-5, -3.546e-5
0.371, 5.547e-5, -3.511e-5
0.372, 5.512e-5, -3.476e-5
0.373, 5.478e-5, -3.442e-5
0.374, 5.446e-5, -3.408e-5
0.375, 5.412e-5, -3.374e-5
0.376, 5.379e-5, -3.341e-5
0.377, 5.350e-5, -3.307e-5
0.378, 5.317e-5, -3.274e-5
0.379, 5.285e-5, -3.241e-5
0.380, 5.254e-5, -3.208e-5
0.381, 5.224e-5, -3.175e-5
0.382, 5.191e-5, -3.143e-5
0.383, 5.161e-5, -3.111e-5
0.384, 5.132e-5, -3.079e-5
0.385, 5.101e-5, -3.047e-5
0.386, 5.070e-5, -3.015e-5
0.387, 5.043e-5, -2.984e-5
0.388, 5.011e-5, -2.952e-5
0.389, 4.983e-5, -2.921e-5
0.390, 4.956e-5, -2.890e-5
0.391, 4.927e-5, -2.859e-5
0.392, 4.900e-5, -2.829e-5
0.393, 4.873e-5, -2.798e-5
0.394, 4.845e-5, -2.768e-5
0.395, 4.817e-5, -2.738e-5
0.396, 4.792e-5, -2.708e-5
0.397, 4.764e-5, -2.678e-5
0.398, 4.737e-5, -2.649e-5
0.399, 4.713e-5, -2.619e-5
0.400, 4.685e-5, -2.590e-5
0.401, 4.659e-5, -2.561e-5
0.402, 4.635e-5, -2.532e-5
0.403, 4.611e-5, -2.503e-5
0.404, 4.585e-5, -2.474e-5
0.405, 4.562e-5, -2.446e-5
0.406, 4.540e-5, -2.417e-5
0.407, 4.516e-5, -2.389e-5
0.408, 4.491e-5, -2.361e-5
0.409, 4.470e-5, -2.333e-5
0.410, 4.446e-5, -2.305e-5
0.411, 4.423e-5, -2.278e-5
0.412, 4.402e-5, -2.250e-5
0.413, 4.380e-5, -2.223e-5
0.414, 4.358e-5, -2.196e-5
0.415, 4.337e-5, -2.169e-5
0.416, 4.318e-5, -2.142e-5
0.417, 4.294e-5, -2.115e-5
0.418, 4.274e-5, -2.088e-5
0.419, 4.255e-5, -2.061e-5
0.420, 4.232e-5, -2.035e-5
0.421, 4.213e-5, -2.009e-5
0.422, 4.195e-5, -1.982e-5
0.423, 4.175e-5, -1.956e-5
0.424, 4.155e-5, -1.930e-5
0.425, 4.137e-5, -1.904e-5
0.426, 4.118e-5, -1.879e-5
0.427, 4.098e-5, -1.853e-5
0.428, 4.081e-5, -1.828e-5
0.429, 4.062e-5, -1.802e-5
0.430, 4.043e-5, -1.777e-5
0.431, 4.026e-5, -1.752e-5
0.432, 4.005e-5, -1.727e-5
0.433, 3.984e-5, -1.702e-5
0.434, 3.968e-5, -1.677e-5
0.435, 3.952e-5, -1.652e-5
0.436, 3.934e-5, -1.628e-5
0.437, 3.917e-5, -1.603e-5
0.438, 3.901e-5, -1.579e-5
0.439, 3.884e-5, -1.555e-5
0.440, 3.867e-5, -1.530e-5
0.441, 3.853e-5, -1.506e-5
0.442, 3.836e-5, -1.482e-5
0.443, 3.820e-5, -1.459e-5
0.444, 3.807e-5, -1.435e-5
0.445, 3.790e-5, -1.411e-5
0.446, 3.775e-5, -1.387e-5
0.447, 3.762e-5, -1.364e-5
0.448, 3.746e-5, -1.341e-5
0.449, 3.732e-5, -1.317e-5
0.450, 3.717e-5, -1.294e-5
0.451, 3.702e-5, -1.271e-5
0.452, 3.688e-5, -1.248e-5
0.453, 3.674e-5, -1.225e-5
0.454, 3.661e-5, -1.202e-5
0.455, 3.646e-5, -1.179e-5
0.456, 3.633e-5, -1.156e-5
0.457, 3.620e-5, -1.134e-5
0.458, 3.606e-5, -1.111e-5
0.459, 3.592e-5, -1.089e-5
0.460, 3.580e-5, -1.066e-5
0.461, 3.567e-5, -1.044e-5
0.462, 3.553e-5, -1.022e-5
0.463, 3.542e-5, -9.998e-6
0.464, 3.529e-5, -9.778e-6
0.465, 3.515e-5, -9.558e-6
0.466, 3.503e-5, -9.339e-6
0.467, 3.492e-5, -9.121e-6
0.468, 3.479e-5, -8.904e-6
0.469, 3.467e-5, -8.687e-6
0.470, 3.455e-5, -8.471e-6
0.471, 3.443e-5, -8.256e-6
0.472, 3.431e-5, -8.041e-6
0.473, 3.421e-5, -7.828e-6
0.474, 3.408e-5, -7.615e-6
0.475, 3.397e-5, -7.402e-6
0.476, 3.387e-5, -7.191e-6
0.477, 3.375e-5, -6.980e-6
0.478, 3.364e-5, -6.769e-6
0.479, 3.354e-5, -6.560e-6
0.480, 3.344e-5, -6.351e-6
0.481, 3.332e-5, -6.142e-6
0.482, 3.321e-5, -5.935e-6
0.483, 3.311e-5, -5.728e-6
0.484, 3.299e-5, -5.522e-6
0.485, 3.290e-5, -5.316e-6
0.486, 3.279e-5, -5.111e-6
0.487, 3.268e-5, -4.907e-6
0.488, 3.258e-5, -4.703e-6
0.489, 3.250e-5, -4.500e-6
0.490, 3.240e-5, -4.298e-6
0.491, 3.230e-5, -4.096e-6
0.492, 3.222e-5, -3.894e-6
0.493, 3.212e-5, -3.694e-6
0.494, 3.202e-5, -3.494e-6
0.495, 3.195e-5, -3.294e-6
0.496, 3.185e-5, -3.095e-6
0.497, 3.175e-5, -2.896e-6
0.498, 3.165e-5, -2.699e-6
0.499, 3.157e-5, -2.501e-6
0.500, 3.130e-5, -2.306e-6

Segment 3:
0.499, 3.095e-5, -2.112e-6
0.498, 3.076e-5, -1.920e-6
0.497, 3.059e-5, -1.729e-6
0.496, 3.046e-5, -1.538e-6
0.495, 3.033e-5, -1.349e-6
0.494, 3.018e-5, -1.160e-6
0.493, 3.006e-5, -9.723e-7
0.492, 2.996e-5, -7.850e-7
0.491, 2.983e-5, -5.986e-7
0.490, 2.971e-5, -4.129e-7
0.489, 2.960e-5, -2.279e-7
0.488, 2.951e-5, -4.343e-8
0.487, 2.936e-5, 1.401e-7
0.486, 2.927e-5, 3.230e-7
0.485, 2.915e-5, 5.053e-7
0.484, 2.905e-5, 6.869e-7
0.483, 2.896e-5, 8.678e-7
0.482, 2.886e-5, 1.048e-6
0.481, 2.875e-5, 1.228e-6
0.480, 2.864e-5, 1.407e-6
0.479, 2.857e-5, 1.585e-6
0.478, 2.846e-5, 1.763e-6
0.477, 2.836e-5, 1.940e-6
0.476, 2.828e-5, 2.117e-6
0.475, 2.817e-5, 2.293e-6
0.474, 2.809e-5, 2.469e-6
0.473, 2.800e-5, 2.644e-6
0.472, 2.790e-5, 2.818e-6
0.471, 2.780e-5, 2.992e-6
0.470, 2.772e-5, 3.165e-6
0.469, 2.763e-5, 3.338e-6
0.468, 2.754e-5, 3.510e-6
0.467, 2.743e-5, 3.681e-6
0.466, 2.736e-5, 3.852e-6
0.465, 2.726e-5, 4.023e-6
0.464, 2.717e-5, 4.193e-6
0.463, 2.711e-5, 4.362e-6
0.462, 2.702e-5, 4.531e-6
0.461, 2.693e-5, 4.699e-6
0.460, 2.686e-5, 4.867e-6
0.459, 2.676e-5, 5.034e-6
0.458, 2.667e-5, 5.201e-6
0.457, 2.661e-5, 5.367e-6
0.456, 2.652e-5, 5.533e-6
0.455, 2.643e-5, 5.698e-6
0.454, 2.636e-5, 5.863e-6
0.453, 2.628e-5, 6.027e-6
0.452, 2.618e-5, 6.191e-6
0.451, 2.612e-5, 6.354e-6
0.450, 2.604e-5, 6.517e-6
0.449, 2.595e-5, 6.679e-6
0.448, 2.587e-5, 6.841e-6
0.447, 2.580e-5, 7.002e-6
0.446, 2.572e-5, 7.163e-6
0.445, 2.565e-5, 7.323e-6
0.444, 2.559e-5, 7.483e-6
0.443, 2.549e-5, 7.642e-6
0.442, 2.540e-5, 7.801e-6
0.441, 2.533e-5, 7.959e-6
0.440, 2.525e-5, 8.117e-6
0.439, 2.517e-5, 8.275e-6
0.438, 2.510e-5, 8.431e-6
0.437, 2.503e-5, 8.588e-6
0.436, 2.494e-5, 8.744e-6
0.435, 2.487e-5, 8.899e-6
0.434, 2.479e-5, 9.054e-6
0.433, 2.470e-5, 9.208e-6
0.432, 2.462e-5, 9.362e-6
0.431, 2.455e-5, 9.516e-6
0.430, 2.444e-5, 9.668e-6
0.429, 2.434e-5, 9.821e-6
0.428, 2.426e-5, 9.972e-6
0.427, 2.420e-5, 1.012e-5
0.426, 2.412e-5, 1.027e-5
0.425, 2.404e-5, 1.042e-5
0.424, 2.396e-5, 1.057e-5
0.423, 2.388e-5, 1.072e-5
0.422, 2.380e-5, 1.087e-5
0.421, 2.373e-5, 1.102e-5
0.420, 2.366e-5, 1.117e-5
0.419, 2.357e-5, 1.132e-5
0.418, 2.350e-5, 1.146e-5
0.417, 2.340e-5, 1.161e-5
0.416, 2.331e-5, 1.175e-5
0.415, 2.325e-5, 1.190e-5
0.414, 2.317e-5, 1.204e-5
0.413, 2.307e-5, 1.219e-5
0.412, 2.301e-5, 1.233e-5
0.411, 2.293e-5, 1.248e-5
0.410, 2.283e-5, 1.262e-5
0.409, 2.276e-5, 1.276e-5
0.408, 2.268e-5, 1.290e-5
0.407, 2.258e-5, 1.304e-5
0.406, 2.251e-5, 1.318e-5
0.405, 2.243e-5, 1.332e-5
0.404, 2.232e-5, 1.346e-5
0.403, 2.225e-5, 1.360e-5
0.402, 2.217e-5, 1.374e-5
0.401, 2.206e-5, 1.388e-5
0.400, 2.198e-5, 1.402e-5
0.399, 2.190e-5, 1.415e-5
0.398, 2.180e-5, 1.429e-5
0.397, 2.172e-5, 1.443e-5
0.396, 2.163e-5, 1.456e-5
0.395, 2.153e-5, 1.470e-5
0.394, 2.142e-5, 1.483e-5
0.393, 2.132e-5, 1.496e-5
0.392, 2.124e-5, 1.510e-5
0.391, 2.112e-5, 1.523e-5
0.390, 2.103e-5, 1.536e-5
0.389, 2.093e-5, 1.549e-5
0.388, 2.081e-5, 1.562e-5
0.387, 2.072e-5, 1.575e-5
0.386, 2.062e-5, 1.588e-5
0.385, 2.049e-5, 1.601e-5
0.384, 2.037e-5, 1.613e-5
0.383, 2.028e-5, 1.626e-5
0.382, 2.015e-5, 1.639e-5
0.381, 2.003e-5, 1.651e-5
0.380, 1.993e-5, 1.664e-5
0.379, 1.980e-5, 1.676e-5
0.378, 1.967e-5, 1.688e-5
0.377, 1.955e-5, 1.700e-5
0.376, 1.942e-5, 1.713e-5
0.375, 1.928e-5, 1.725e-5
0.374, 1.914e-5, 1.737e-5
0.373, 1.902e-5, 1.749e-5
0.372, 1.887e-5, 1.760e-5
0.371, 1.874e-5, 1.772e-5
0.370, 1.860e-5, 1.784e-5
0.369, 1.842e-5, 1.795e-5
0.368, 1.828e-5, 1.807e-5
0.367, 1.815e-5, 1.818e-5
0.366, 1.798e-5, 1.829e-5
0.365, 1.783e-5, 1.840e-5
0.364, 1.767e-5, 1.851e-5
0.363, 1.749e-5, 1.862e-5
0.362, 1.731e-5, 1.873e-5
0.361, 1.714e-5, 1.884e-5
0.360, 1.697e-5, 1.894e-5
0.359, 1.677e-5, 1.905e-5
0.358, 1.657e-5, 1.915e-5
0.357, 1.639e-5, 1.926e-5
0.356, 1.618e-5, 1.936e-5
0.355, 1.598e-5, 1.946e-5
0.354, 1.579e-5, 1.955e-5
0.353, 1.554e-5, 1.965e-5
0.352, 1.532e-5, 1.975e-5
0.351, 1.513e-5, 1.984e-5
0.350, 1.490e-5, 1.994e-5
0.349, 1.464e-5, 2.003e-5
0.348, 1.443e-5, 2.012e-5
0.347, 1.419e-5, 2.021e-5
0.346, 1.393e-5, 2.029e-5
0.345, 1.368e-5, 2.038e-5
0.344, 1.344e-5, 2.046e-5
0.343, 1.314e-5, 2.054e-5
0.342, 1.288e-5, 2.062e-5
0.341, 1.261e-5, 2.070e-5
0.340, 1.230e-5, 2.078e-5
0.339, 1.200e-5, 2.086e-5
0.338, 1.172e-5, 2.093e-5
0.337, 1.141e-5, 2.100e-5
0.336, 1.107e-5, 2.107e-5
0.335, 1.078e-5, 2.114e-5
0.334, 1.044e-5, 2.120e-5
0.333, 1.009e-5, 2.126e-5
0.332, 9.771e-6, 2.133e-5
0.331, 9.425e-6, 2.138e-5
0.330, 9.024e-6, 2.144e-5
0.329, 8.625e-6, 2.150e-5
0.328, 8.269e-6, 2.155e-5
0.327, 7.838e-6, 2.160e-5
0.326, 7.451e-6, 2.164e-5
0.325, 7.087e-6, 2.169e-5
0.324, 6.639e-6, 2.173e-5
0.323, 6.219e-6, 2.177e-5
0.322, 5.831e-6, 2.180e-5
0.321, 5.378e-6, 2.184e-5
0.320, 4.907e-6, 2.187e-5
0.319, 4.515e-6, 2.190e-5
0.318, 4.027e-6, 2.192e-5
0.317, 3.511e-6, 2.194e-5
0.316, 3.070e-6, 2.196e-5
0.315, 2.597e-6, 2.198e-5
0.314, 2.065e-6, 2.199e-5
0.313, 1.550e-6, 2.200e-5
0.312, 1.054e-6, 2.201e-5
0.311, 4.404e-7, 2.201e-5
0.310, -1.336e-7, 2.201e-5
0.309, -6.456e-7, 2.201e-5
0.308, -1.252e-6, 2.200e-5
0.307, -1.844e-6, 2.199e-5
0.306, -2.346e-6, 2.197e-5
0.305, -2.968e-6, 2.195e-5
0.304, -3.607e-6, 2.193e-5
0.303, -4.130e-6, 2.190e-5
0.302, -4.759e-6, 2.188e-5
0.301, -5.409e-6, 2.184e-5
0.300, -6.004e-6, 2.180e-5
0.299, -6.684e-6, 2.176e-5
0.298, -7.391e-6, 2.172e-5
0.297, -8.001e-6, 2.167e-5
0.296, -8.650e-6, 2.161e-5
0.295, -9.389e-6, 2.155e-5
0.294, -1.005e-5, 2.149e-5
0.293, -1.069e-5, 2.142e-5
0.292, -1.144e-5, 2.135e-5
0.291, -1.215e-5, 2.128e-5
0.290, -1.280e-5, 2.120e-5
0.289, -1.355e-5, 2.111e-5
0.288, -1.432e-5, 2.102e-5
0.287, -1.499e-5, 2.093e-5
0.286, -1.578e-5, 2.083e-5
0.285, -1.657e-5, 2.073e-5
0.284, -1.725e-5, 2.062e-5
0.283, -1.799e-5, 2.051e-5
0.282, -1.882e-5, 2.039e-5
0.281, -1.957e-5, 2.027e-5
0.280, -2.031e-5, 2.014e-5
0.279, -2.115e-5, 2.001e-5
0.278, -2.193e-5, 1.987e-5
0.277, -2.271e-5, 1.973e-5
0.276, -2.358e-5, 1.958e-5
0.275, -2.440e-5, 1.943e-5
0.274, -2.512e-5, 1.927e-5
0.273, -2.596e-5, 1.911e-5
0.272, -2.680e-5, 1.894e-5
0.271, -2.756e-5, 1.877e-5
0.270, -2.837e-5, 1.859e-5
0.269, -2.924e-5, 1.841e-5
0.268, -2.998e-5, 1.822e-5
0.267, -3.076e-5, 1.803e-5
0.266, -3.166e-5, 1.783e-5
0.265, -3.244e-5, 1.763e-5
0.264, -3.323e-5, 1.742e-5
0.263, -3.411e-5, 1.721e-5
0.262, -3.492e-5, 1.699e-5
0.261, -3.565e-5, 1.677e-5
0.260, -3.651e-5, 1.654e-5
0.259, -3.735e-5, 1.630e-5
0.258, -3.815e-5, 1.607e-5
0.257, -3.899e-5, 1.582e-5
0.256, -3.983e-5, 1.557e-5
0.255, -4.056e-5, 1.532e-5
0.254, -4.137e-5, 1.506e-5
0.253, -4.219e-5, 1.480e-5
0.252, -4.293e-5, 1.453e-5
0.251, -4.367e-5, 1.426e-5
0.250, -4.454e-5, 1.398e-5
0.249, -4.526e-5, 1.370e-5
0.248, -4.598e-5, 1.341e-5
0.247, -4.682e-5, 1.312e-5
0.246, -4.756e-5, 1.282e-5
0.245, -4.821e-5, 1.252e-5
0.244, -4.899e-5, 1.221e-5
0.243, -4.973e-5, 1.190e-5
0.242, -5.034e-5, 1.159e-5
0.241, -5.109e-5, 1.127e-5
0.240, -5.182e-5, 1.094e-5
0.239, -5.243e-5, 1.061e-5
0.238, -5.309e-5, 1.028e-5
0.237, -5.386e-5, 9.946e-6
0.236, -5.446e-5, 9.606e-6
0.235, -5.507e-5, 9.261e-6
0.234, -5.576e-5, 8.913e-6
0.233, -5.630e-5, 8.561e-6
0.232, -5.684e-5, 8.206e-6
0.231, -5.746e-5, 7.847e-6
0.230, -5.800e-5, 7.484e-6
0.229, -5.849e-5, 7.119e-6
0.228, -5.906e-5, 6.750e-6
0.227, -5.961e-5, 6.377e-6
0.226, -6.003e-5, 6.002e-6
0.225, -6.055e-5, 5.623e-6
0.224, -6.103e-5, 5.242e-6
0.223, -6.144e-5, 4.858e-6
0.222, -6.187e-5, 4.471e-6
0.221, -6.236e-5, 4.082e-6
0.220, -6.271e-5, 3.690e-6
0.219, -6.307e-5, 3.295e-6
0.218, -6.350e-5, 2.899e-6
0.217, -6.379e-5, 2.500e-6
0.216, -6.407e-5, 2.099e-6
0.215, -6.445e-5, 1.697e-6
0.214, -6.469e-5, 1.292e-6
0.213, -6.492e-5, 8.865e-7
0.212, -6.524e-5, 4.787e-7
0.211, -6.546e-5, 6.962e-8
0.210, -6.560e-5, -3.404e-7
0.209, -6.584e-5, -7.519e-7
0.208, -6.602e-5, -1.164e-6
0.207, -6.613e-5, -1.578e-6
0.206, -6.629e-5, -1.992e-6
0.205, -6.640e-5, -2.407e-6
0.204, -6.643e-5, -2.822e-6
0.203, -6.650e-5, -3.238e-6
0.202, -6.662e-5, -3.654e-6
0.201, -6.663e-5, -4.071e-6
0.200, -6.662e-5, -4.487e-6
0.199, -6.669e-5, -4.904e-6
0.198, -6.670e-5, -5.321e-6
0.197, -6.662e-5, -5.737e-6
0.196, -6.664e-5, -6.154e-6
0.195, -6.658e-5, -6.570e-6
0.194, -6.644e-5, -6.985e-6
0.193, -6.639e-5, -7.400e-6
0.192, -6.635e-5, -7.815e-6
0.191, -6.616e-5, -8.228e-6
0.190, -6.604e-5, -8.641e-6
0.189, -6.593e-5, -9.053e-6
0.188, -6.573e-5, -9.464e-6
0.187, -6.558e-5, -9.874e-6
0.186, -6.543e-5, -1.028e-5
0.185, -6.520e-5, -1.069e-5
0.184, -6.497e-5, -1.110e-5
0.183, -6.481e-5, -1.150e-5
0.182, -6.457e-5, -1.190e-5
0.181, -6.430e-5, -1.231e-5
0.180, -6.409e-5, -1.271e-5
0.179, -6.385e-5, -1.311e-5
0.178, -6.355e-5, -1.350e-5
0.177, -6.332e-5, -1.390e-5
0.176, -6.305e-5, -1.429e-5
0.175, -6.272e-5, -1.469e-5
0.174, -6.243e-5, -1.508e-5
0.173, -6.215e-5, -1.546e-5
0.172, -6.182e-5, -1.585e-5
0.171, -6.152e-5, -1.623e-5
0.170, -6.122e-5, -1.662e-5
0.169, -6.087e-5, -1.700e-5
0.168, -6.055e-5, -1.738e-5
0.167, -6.025e-5, -1.775e-5
0.166, -5.993e-5, -1.813e-5
0.165, -5.958e-5, -1.850e-5
0.164, -5.928e-5, -1.887e-5
0.163, -5.896e-5, -1.924e-5
0.162, -5.859e-5, -1.960e-5
0.161, -5.828e-5, -1.997e-5
0.160, -5.796e-5, -2.033e-5
0.159, -5.759e-5, -2.069e-5
0.158, -5.727e-5, -2.105e-5
0.157, -5.696e-5, -2.141e-5
0.156, -5.659e-5, -2.176e-5
0.155, -5.626e-5, -2.211e-5
0.154, -5.595e-5, -2.246e-5
0.153, -5.561e-5, -2.281e-5
0.152, -5.526e-5, -2.315e-5
0.151, -5.496e-5, -2.350e-5
0.150, -5.463e-5, -2.384e-5
0.149, -5.427e-5, -2.418e-5
0.148, -5.398e-5, -2.451e-5
0.147, -5.363e-5, -2.485e-5
0.146, -5.324e-5, -2.518e-5
0.145, -5.294e-5, -2.551e-5
0.144, -5.263e-5, -2.584e-5
0.143, -5.229e-5, -2.617e-5
0.142, -5.199e-5, -2.649e-5
0.141, -5.170e-5, -2.682e-5
0.140, -5.136e-5, -2.714e-5
0.139, -5.106e-5, -2.746e-5
0.138, -5.078e-5, -2.778e-5
0.137, -5.045e-5, -2.809e-5
0.136, -5.015e-5, -2.840e-5
0.135, -4.988e-5, -2.872e-5
0.134, -4.957e-5, -2.903e-5
0.133, -4.928e-5, -2.933e-5
0.132, -4.900e-5, -2.964e-5
0.131, -4.872e-5, -2.994e-5
0.130, -4.842e-5, -3.025e-5
0.129, -4.817e-5, -3.055e-5
0.128, -4.789e-5, -3.085e-5
0.127, -4.760e-5, -3.114e-5
0.126, -4.734e-5, -3.144e-5
0.125, -4.709e-5, -3.173e-5
0.124, -4.682e-5, -3.203e-5
0.123, -4.653e-5, -3.232e-5
0.122, -4.629e-5, -3.261e-5
0.121, -4.603e-5, -3.290e-5
0.120, -4.577e-5, -3.318e-5
0.119, -4.552e-5, -3.347e-5
0.118, -4.526e-5, -3.375e-5
0.117, -4.501e-5, -3.403e-5
0.116, -4.479e-5, -3.431e-5
0.115, -4.454e-5, -3.459e-5
0.114, -4.430e-5, -3.487e-5
0.113, -4.408e-5, -3.514e-5
0.112, -4.386e-5, -3.541e-5
0.111, -4.360e-5, -3.569e-5
0.110, -4.340e-5, -3.596e-5
0.109, -4.317e-5, -3.623e-5
0.108, -4.295e-5, -3.650e-5
0.107, -4.272e-5, -3.676e-5
0.106, -4.250e-5, -3.703e-5
0.105, -4.228e-5, -3.729e-5
0.104, -4.208e-5, -3.756e-5
0.103, -4.190e-5, -3.782e-5
0.102, -4.167e-5, -3.808e-5
0.101, -4.147e-5, -3.834e-5
0.100, -4.128e-5, -3.860e-5
0.099, -4.107e-5, -3.885e-5
0.098, -4.088e-5, -3.911e-5
0.097, -4.069e-5, -3.936e-5
0.096, -4.050e-5, -3.962e-5
0.095, -4.029e-5, -3.987e-5
0.094, -4.012e-5, -4.012e-5
0.093, -3.995e-5, -4.037e-5
0.092, -3.974e-5, -4.062e-5
0.091, -3.956e-5, -4.086e-5
0.090, -3.940e-5, -4.111e-5
0.089, -3.922e-5, -4.136e-5
0.088, -3.904e-5, -4.160e-5
0.087, -3.888e-5, -4.184e-5
0.086, -3.869e-5, -4.208e-5
0.085, -3.852e-5, -4.232e-5
0.084, -3.836e-5, -4.256e-5
0.083, -3.819e-5, -4.280e-5
0.082, -3.803e-5, -4.304e-5
0.081, -3.784e-5, -4.328e-5
0.080, -3.763e-5, -4.351e-5
0.079, -3.748e-5, -4.375e-5
0.078, -3.732e-5, -4.398e-5
0.077, -3.717e-5, -4.421e-5
0.076, -3.702e-5, -4.444e-5
0.075, -3.685e-5, -4.467e-5
0.074, -3.671e-5, -4.490e-5
0.073, -3.656e-5, -4.513e-5
0.072, -3.641e-5, -4.536e-5
0.071, -3.628e-5, -4.559e-5
0.070, -3.612e-5, -4.581e-5
0.069, -3.600e-5, -4.604e-5
0.068, -3.585e-5, -4.626e-5
0.067, -3.570e-5, -4.648e-5
0.066, -3.557e-5, -4.671e-5
0.065, -3.543e-5, -4.693e-5
0.064, -3.531e-5, -4.715e-5
0.063, -3.515e-5, -4.737e-5
0.062, -3.507e-5, -4.759e-5
0.061, -3.491e-5, -4.781e-5
0.060, -3.476e-5, -4.802e-5
0.059, -3.463e-5, -4.824e-5
0.058, -3.451e-5, -4.846e-5
0.057, -3.438e-5, -4.867e-5
0.056, -3.425e-5, -4.888e-5
0.055, -3.415e-5, -4.910e-5
0.054, -3.401e-5, -4.931e-5
0.053, -3.389e-5, -4.952e-5
0.052, -3.377e-5, -4.973e-5
0.051, -3.365e-5, -4.994e-5
0.050, -3.353e-5, -5.015e-5
0.049, -3.342e-5, -5.036e-5
0.048, -3.331e-5, -5.057e-5
0.047, -3.318e-5, -5.078e-5
0.046, -3.310e-5, -5.098e-5
0.045, -3.297e-5, -5.119e-5
0.044, -3.285e-5, -5.140e-5
0.043, -3.273e-5, -5.160e-5
0.042, -3.264e-5, -5.180e-5
0.041, -3.251e-5, -5.201e-5
0.040, -3.242e-5, -5.221e-5
0.039, -3.232e-5, -5.241e-5
0.038, -3.220e-5, -5.261e-5
0.037, -3.211e-5, -5.281e-5
0.036, -3.200e-5, -5.301e-5
0.035, -3.190e-5, -5.321e-5
0.034, -3.178e-5, -5.341e-5
0.033, -3.170e-5, -5.361e-5
0.032, -3.160e-5, -5.381e-5
0.031, -3.148e-5, -5.400e-5
0.030, -3.141e-5, -5.420e-5
0.029, -3.130e-5, -5.440e-5
0.028, -3.121e-5, -5.459e-5
0.027, -3.112e-5, -5.479e-5
0.026, -3.100e-5, -5.498e-5
0.025, -3.090e-5, -5.517e-5
0.024, -3.080e-5, -5.537e-5
0.023, -3.072e-5, -5.556e-5
0.022, -3.062e-5, -5.575e-5
0.021, -3.052e-5, -5.594e-5
0.020, -3.045e-5, -5.613e-5
0.019, -3.035e-5, -5.632e-5
0.018, -3.026e-5, -5.651e-5
0.017, -3.020e-5, -5.670e-5
0.016, -3.010e-5, -5.689e-5
0.015, -3.001e-5, -5.707e-5
0.014, -2.995e-5, -5.726e-5
0.013, -2.986e-5, -5.745e-5
0.012, -2.977e-5, -5.763e-5
0.011, -2.971e-5, -5.782e-5
0.010, -2.961e-5, -5.800e-5
0.009, -2.952e-5, -5.819e-5
0.008, -2.945e-5, -5.837e-5
0.007, -2.936e-5, -5.856e-5
0.006, -2.928e-5, -5.874e-5
0.005, -2.921e-5, -5.892e-5
0.004, -2.913e-5, -5.910e-5
0.003, -2.904e-5, -5.928e-5
0.002, -2.896e-5, -5.947e-5
0.001, -2.889e-5, -5.965e-5
0.000, -2.868e-5, -5.983e-5

Segment 4:
0.001, -2.839e-5, -6.000e-5
0.002, -2.826e-5, -6.018e-5
0.003, -2.813e-5, -6.036e-5
0.004, -2.800e-5, -6.053e-5
0.005, -2.789e-5, -6.070e-5
0.006, -2.779e-5, -6.088e-5
0.007, -2.768e-5, -6.105e-5
0.008, -2.757e-5, -6.122e-5
0.009, -2.749e-5, -6.140e-5
0.010, -2.737e-5, -6.157e-5
0.011, -2.730e-5, -6.174e-5
0.012, -2.722e-5, -6.191e-5
0.013, -2.710e-5, -6.208e-5
0.014, -2.701e-5, -6.225e-5
0.015, -2.693e-5, -6.241e-5
0.016, -2.684e-5, -6.258e-5
0.017, -2.676e-5, -6.275e-5
0.018, -2.667e-5, -6.292e-5
0.019, -2.658e-5, -6.308e-5
0.020, -2.650e-5, -6.325e-5
0.021, -2.642e-5, -6.341e-5
0.022, -2.634e-5, -6.358e-5
0.023, -2.626e-5, -6.374e-5
0.024, -2.618e-5, -6.390e-5
0.025, -2.610e-5, -6.407e-5
0.026, -2.601e-5, -6.423e-5
0.027, -2.593e-5, -6.439e-5
0.028, -2.586e-5, -6.455e-5
0.029, -2.579e-5, -6.472e-5
0.030, -2.571e-5, -6.488e-5
0.031, -2.563e-5, -6.504e-5
0.032, -2.557e-5, -6.520e-5
0.033, -2.549e-5, -6.536e-5
0.034, -2.542e-5, -6.551e-5
0.035, -2.535e-5, -6.567e-5
0.036, -2.528e-5, -6.583e-5
0.037, -2.520e-5, -6.599e-5
0.038, -2.512e-5, -6.614e-5
0.039, -2.505e-5, -6.630e-5
0.040, -2.497e-5, -6.646e-5
0.041, -2.491e-5, -6.661e-5
0.042, -2.484e-5, -6.677e-5
0.043, -2.478e-5, -6.692e-5
0.044, -2.470e-5, -6.708e-5
0.045, -2.463e-5, -6.723e-5
0.046, -2.457e-5, -6.739e-5
0.047, -2.451e-5, -6.754e-5
0.048, -2.443e-5, -6.769e-5
0.049, -2.437e-5, -6.784e-5
0.050, -2.432e-5, -6.800e-5
0.051, -2.424e-5, -6.815e-5
0.052, -2.416e-5, -6.830e-5
0.053, -2.411e-5, -6.845e-5
0.054, -2.404e-5, -6.860e-5
0.055, -2.395e-5, -6.875e-5
0.056, -2.390e-5, -6.890e-5
0.057, -2.386e-5, -6.905e-5
0.058, -2.377e-5, -6.920e-5
0.059, -2.370e-5, -6.934e-5
0.060, -2.364e-5, -6.949e-5
0.061, -2.359e-5, -6.964e-5
0.062, -2.352e-5, -6.979e-5
0.063, -2.345e-5, -6.993e-5
0.064, -2.340e-5, -7.008e-5
0.065, -2.334e-5, -7.022e-5
0.066, -2.327e-5, -7.037e-5
0.067, -2.319e-5, -7.051e-5
0.068, -2.313e-5, -7.066e-5
0.069, -2.307e-5, -7.080e-5
0.070, -2.300e-5, -7.095e-5
0.071, -2.293e-5, -7.109e-5
0.072, -2.289e-5, -7.123e-5
0.073, -2.282e-5, -7.138e-5
0.074, -2.274e-5, -7.152e-5
0.075, -2.269e-5, -7.166e-5
0.076, -2.264e-5, -7.180e-5
0.077, -2.257e-5, -7.194e-5
0.078, -2.249e-5, -7.208e-5
0.079, -2.244e-5, -7.222e-5
0.080, -2.239e-5, -7.236e-5
0.081, -2.231e-5, -7.250e-5
0.082, -2.224e-5, -7.264e-5
0.083, -2.215e-5, -7.278e-5
0.084, -2.206e-5, -7.292e-5
0.085, -2.200e-5, -7.306e-5
0.086, -2.194e-5, -7.319e-5
0.087, -2.188e-5, -7.333e-5
0.088, -2.181e-5, -7.347e-5
0.089, -2.174e-5, -7.360e-5
0.090, -2.168e-5, -7.374e-5
0.091, -2.162e-5, -7.387e-5
0.092, -2.156e-5, -7.401e-5
0.093, -2.148e-5, -7.414e-5
0.094, -2.143e-5, -7.428e-5
0.095, -2.138e-5, -7.441e-5
0.096, -2.129e-5, -7.454e-5
0.097, -2.122e-5, -7.467e-5
0.098, -2.116e-5, -7.481e-5
0.099, -2.110e-5, -7.494e-5
0.100, -2.101e-5, -7.507e-5
0.101, -2.096e-5, -7.520e-5
0.102, -2.090e-5, -7.533e-5
0.103, -2.080e-5, -7.546e-5
0.104, -2.074e-5, -7.559e-5
0.105, -2.069e-5, -7.572e-5
0.106, -2.061e-5, -7.585e-5
0.107, -2.054e-5, -7.598e-5
0.108, -2.048e-5, -7.611e-5
0.109, -2.042e-5, -7.623e-5
0.110, -2.033e-5, -7.636e-5
0.111, -2.026e-5, -7.649e-5
0.112, -2.018e-5, -7.661e-5
0.113, -2.009e-5, -7.674e-5
0.114, -2.003e-5, -7.686e-5
0.115, -1.996e-5, -7.699e-5
0.116, -1.986e-5, -7.711e-5
0.117, -1.979e-5, -7.724e-5
0.118, -1.972e-5, -7.736e-5
0.119, -1.962e-5, -7.748e-5
0.120, -1.954e-5, -7.760e-5
0.121, -1.949e-5, -7.773e-5
0.122, -1.940e-5, -7.785e-5
0.123, -1.929e-5, -7.797e-5
0.124, -1.922e-5, -7.809e-5
0.125, -1.912e-5, -7.821e-5
0.126, -1.901e-5, -7.833e-5
0.127, -1.895e-5, -7.845e-5
0.128, -1.884e-5, -7.856e-5
0.129, -1.875e-5, -7.868e-5
0.130, -1.866e-5, -7.880e-5
0.131, -1.856e-5, -7.891e-5
0.132, -1.847e-5, -7.903e-5
0.133, -1.836e-5, -7.914e-5
0.134, -1.827e-5, -7.926e-5
0.135, -1.814e-5, -7.937e-5
0.136, -1.804e-5, -7.948e-5
0.137, -1.794e-5, -7.960e-5
0.138, -1.781e-5, -7.971e-5
0.139, -1.772e-5, -7.982e-5
0.140, -1.760e-5, -7.993e-5
0.141, -1.749e-5, -8.004e-5
0.142, -1.735e-5, -8.014e-5
0.143, -1.725e-5, -8.025e-5
0.144, -1.711e-5, -8.036e-5
0.145, -1.698e-5, -8.047e-5
0.146, -1.685e-5, -8.057e-5
0.147, -1.674e-5, -8.068e-5
0.148, -1.657e-5, -8.078e-5
0.149, -1.646e-5, -8.088e-5
0.150, -1.631e-5, -8.098e-5
0.151, -1.614e-5, -8.108e-5
0.152, -1.600e-5, -8.118e-5
0.153, -1.586e-5, -8.128e-5
0.154, -1.568e-5, -8.138e-5
0.155, -1.554e-5, -8.148e-5
0.156, -1.538e-5, -8.158e-5
0.157, -1.518e-5, -8.167e-5
0.158, -1.500e-5, -8.176e-5
0.159, -1.485e-5, -8.186e-5
0.160, -1.467e-5, -8.195e-5
0.161, -1.446e-5, -8.204e-5
0.162, -1.428e-5, -8.213e-5
0.163, -1.409e-5, -8.222e-5
0.164, -1.386e-5, -8.230e-5
0.165, -1.366e-5, -8.239e-5
0.166, -1.346e-5, -8.247e-5
0.167, -1.322e-5, -8.255e-5
0.168, -1.302e-5, -8.264e-5
0.169, -1.281e-5, -8.272e-5
0.170, -1.258e-5, -8.279e-5
0.171, -1.232e-5, -8.287e-5
0.172, -1.212e-5, -8.295e-5
0.173, -1.184e-5, -8.302e-5
0.174, -1.158e-5, -8.309e-5
0.175, -1.133e-5, -8.316e-5
0.176, -1.107e-5, -8.323e-5
0.177, -1.077e-5, -8.330e-5
0.178, -1.052e-5, -8.337e-5
0.179, -1.023e-5, -8.343e-5
0.180, -9.910e-6, -8.349e-5
0.181, -9.635e-6, -8.355e-5
0.182, -9.333e-6, -8.361e-5
0.183, -8.993e-6, -8.367e-5
0.184, -8.677e-6, -8.372e-5
0.185, -8.366e-6, -8.377e-5
0.186, -8.006e-6, -8.382e-5
0.187, -7.659e-6, -8.387e-5
0.188, -7.319e-6, -8.392e-5
0.189, -6.947e-6, -8.396e-5
0.190, -6.506e-6, -8.400e-5
0.191, -6.138e-6, -8.404e-5
0.192, -5.765e-6, -8.408e-5
0.193, -5.323e-6, -8.411e-5
0.194, -4.958e-6, -8.414e-5
0.195, -4.550e-6, -8.417e-5
0.196, -4.074e-6, -8.419e-5
0.197, -3.678e-6, -8.422e-5
0.198, -3.248e-6, -8.424e-5
0.199, -2.765e-6, -8.426e-5
0.200, -2.293e-6, -8.427e-5
0.201, -1.886e-6, -8.428e-5
0.202, -1.387e-6, -8.429e-5
0.203, -8.977e-7, -8.430e-5
0.204, -4.219e-7, -8.430e-5
0.205, 6.717e-8, -8.430e-5
0.206, 6.637e-7, -8.429e-5
0.207, 1.168e-6, -8.429e-5
0.208, 1.709e-6, -8.428e-5
0.209, 2.323e-6, -8.426e-5
0.210, 2.833e-6, -8.424e-5
0.211, 3.370e-6, -8.422e-5
0.212, 3.996e-6, -8.420e-5
0.213, 4.561e-6, -8.417e-5
0.214, 5.129e-6, -8.414e-5
0.215, 5.767e-6, -8.410e-5
0.216, 6.387e-6, -8.406e-5
0.217, 6.943e-6, -8.402e-5
0.218, 7.593e-6, -8.397e-5
0.219, 8.269e-6, -8.392e-5
0.220, 8.894e-6, -8.386e-5
0.221, 9.579e-6, -8.380e-5
0.222, 1.030e-5, -8.374e-5
0.223, 1.090e-5, -8.367e-5
0.224, 1.157e-5, -8.360e-5
0.225, 1.233e-5, -8.352e-5
0.226, 1.300e-5, -8.344e-5
0.227, 1.366e-5, -8.335e-5
0.228, 1.442e-5, -8.326e-5
0.229, 1.514e-5, -8.317e-5
0.230, 1.583e-5, -8.307e-5
0.231, 1.662e-5, -8.297e-5
0.232, 1.736e-5, -8.286e-5
0.233, 1.806e-5, -8.275e-5
0.234, 1.883e-5, -8.263e-5
0.235, 1.962e-5, -8.251e-5
0.236, 2.033e-5, -8.238e-5
0.237, 2.113e-5, -8.225e-5
0.238, 2.197e-5, -8.211e-5
0.239, 2.268e-5, -8.197e-5
0.240, 2.346e-5, -8.182e-5
0.241, 2.435e-5, -8.167e-5
0.242, 2.513e-5, -8.151e-5
0.243, 2.590e-5, -8.135e-5
0.244, 2.679e-5, -8.118e-5
0.245, 2.757e-5, -8.101e-5
0.246, 2.833e-5, -8.083e-5
0.247, 2.923e-5, -8.065e-5
0.248, 3.004e-5, -8.046e-5
0.249, 3.078e-5, -8.027e-5
0.250, 3.166e-5, -8.007e-5
0.251, 3.248e-5, -7.987e-5
0.252, 3.324e-5, -7.966e-5
0.253, 3.407e-5, -7.945e-5
0.254, 3.495e-5, -7.923e-5
0.255, 3.571e-5, -7.901e-5
0.256, 3.654e-5, -7.878e-5
0.257, 3.744e-5, -7.854e-5
0.258, 3.821e-5, -7.831e-5
0.259, 3.899e-5, -7.806e-5
0.260, 3.989e-5, -7.781e-5
0.261, 4.073e-5, -7.756e-5
0.262, 4.148e-5, -7.730e-5
0.263, 4.234e-5, -7.703e-5
0.264, 4.318e-5, -7.676e-5
0.265, 4.389e-5, -7.649e-5
0.266, 4.472e-5, -7.621e-5
0.267, 4.556e-5, -7.593e-5
0.268, 4.626e-5, -7.564e-5
0.269, 4.704e-5, -7.534e-5
0.270, 4.787e-5, -7.504e-5
0.271, 4.858e-5, -7.474e-5
0.272, 4.932e-5, -7.443e-5
0.273, 5.014e-5, -7.412e-5
0.274, 5.081e-5, -7.380e-5
0.275, 5.149e-5, -7.348e-5
0.276, 5.229e-5, -7.315e-5
0.277, 5.299e-5, -7.282e-5
0.278, 5.364e-5, -7.249e-5
0.279, 5.437e-5, -7.215e-5
0.280, 5.507e-5, -7.180e-5
0.281, 5.567e-5, -7.145e-5
0.282, 5.641e-5, -7.110e-5
0.283, 5.710e-5, -7.074e-5
0.284, 5.762e-5, -7.038e-5
0.285, 5.824e-5, -7.002e-5
0.286, 5.888e-5, -6.965e-5
0.287, 5.943e-5, -6.928e-5
0.288, 5.997e-5, -6.891e-5
0.289, 6.059e-5, -6.853e-5
0.290, 6.107e-5, -6.815e-5
0.291, 6.155e-5, -6.776e-5
0.292, 6.213e-5, -6.737e-5
0.293, 6.261e-5, -6.698e-5
0.294, 6.304e-5, -6.659e-5
0.295, 6.356e-5, -6.619e-5
0.296, 6.398e-5, -6.579e-5
0.297, 6.433e-5, -6.539e-5
0.298, 6.477e-5, -6.498e-5
0.299, 6.519e-5, -6.458e-5
0.300, 6.547e-5, -6.417e-5
0.301, 6.584e-5, -6.375e-5
0.302, 6.622e-5, -6.334e-5
0.303, 6.644e-5, -6.293e-5
0.304, 6.673e-5, -6.251e-5
0.305, 6.704e-5, -6.209e-5
0.306, 6.725e-5, -6.167e-5
0.307, 6.747e-5, -6.125e-5
0.308, 6.775e-5, -6.082e-5
0.309, 6.790e-5, -6.040e-5
0.310, 6.801e-5, -5.997e-5
0.311, 6.821e-5, -5.955e-5
0.312, 6.834e-5, -5.912e-5
0.313, 6.841e-5, -5.869e-5
0.314, 6.857e-5, -5.826e-5
0.315, 6.864e-5, -5.784e-5
0.316, 6.864e-5, -5.741e-5
0.317, 6.867e-5, -5.698e-5
0.318, 6.872e-5, -5.655e-5
0.319, 6.866e-5, -5.612e-5
0.320, 6.864e-5, -5.569e-5
0.321, 6.867e-5, -5.526e-5
0.322, 6.859e-5, -5.483e-5
0.323, 6.849e-5, -5.440e-5
0.324, 6.845e-5, -5.398e-5
0.325, 6.832e-5, -5.355e-5
0.326, 6.816e-5, -5.312e-5
0.327, 6.809e-5, -5.270e-5
0.328, 6.794e-5, -5.227e-5
0.329, 6.774e-5, -5.185e-5
0.330, 6.760e-5, -5.143e-5
0.331, 6.741e-5, -5.101e-5
0.332, 6.716e-5, -5.059e-5
0.333, 6.697e-5, -5.017e-5
0.334, 6.678e-5, -4.975e-5
0.335, 6.650e-5, -4.933e-5
0.336, 6.625e-5, -4.892e-5
0.337, 6.604e-5, -4.851e-5
0.338, 6.573e-5, -4.810e-5
0.339, 6.545e-5, -4.769e-5
0.340, 6.521e-5, -4.728e-5
0.341, 6.491e-5, -4.687e-5
0.342, 6.459e-5, -4.647e-5
0.343, 6.432e-5, -4.607e-5
0.344, 6.402e-5, -4.567e-5
0.345, 6.367e-5, -4.527e-5
0.346, 6.336e-5, -4.487e-5
0.347, 6.307e-5, -4.448e-5
0.348, 6.269e-5, -4.409e-5
0.349, 6.233e-5, -4.370e-5
0.350, 6.203e-5, -4.331e-5
0.351, 6.166e-5, -4.293e-5
0.352, 6.133e-5, -4.254e-5
0.353, 6.102e-5, -4.216e-5
0.354, 6.065e-5, -4.178e-5
0.355, 6.030e-5, -4.141e-5
0.356, 5.998e-5, -4.103e-5
0.357, 5.961e-5, -4.066e-5
0.358, 5.925e-5, -4.029e-5
0.359, 5.894e-5, -3.992e-5
0.360, 5.856e-5, -3.955e-5
0.361, 5.821e-5, -3.919e-5
0.362, 5.787e-5, -3.883e-5
0.363, 5.753e-5, -3.847e-5
0.364, 5.717e-5, -3.811e-5
0.365, 5.684e-5, -3.776e-5
0.366, 5.651e-5, -3.740e-5
0.367, 5.614e-5, -3.705e-5
0.368, 5.574e-5, -3.670e-5
0.369, 5.542e-5, -3.636e-5
0.370, 5.505e-5, -3.601e-5
0.371, 5.471e-5, -3.567e-5
0.372, 5.440e-5, -3.533e-5
0.373, 5.406e-5, -3.499e-5
0.374, 5.373e-5, -3.466e-5
0.375, 5.343e-5, -3.432e-5
0.376, 5.310e-5, -3.399e-5
0.377, 5.276e-5, -3.366e-5
0.378, 5.247e-5, -3.333e-5
0.379, 5.216e-5, -3.301e-5
0.380, 5.183e-5, -3.268e-5
0.381, 5.152e-5, -3.236e-5
0.382, 5.122e-5, -3.204e-5
0.383, 5.090e-5, -3.172e-5
0.384, 5.060e-5, -3.141e-5
0.385, 5.032e-5, -3.109e-5
0.386, 5.000e-5, -3.078e-5
0.387, 4.972e-5, -3.047e-5
0.388, 4.945e-5, -3.016e-5
0.389, 4.915e-5, -2.985e-5
0.390, 4.887e-5, -2.955e-5
