Mar. 30, 2023   16:57:26
Cyclic Voltammetry
File: 10mmol40mvs
Data Source:  Experiment
Instrument Model:  CHI600B
Header: 
Note: 

Init E (V) = 0.268
High E (V) = 0.5
Low E (V) = 0
Init P/N = N
Scan Rate (V/s) = 0.04
Segment = 4
Sample Interval (V) = 0.001
Quiet Time (sec) = 2
Sensitivity (A/V) = 5e-5

Segment 1:

Segment 2:
Ep = 0.306V
ip = 4.329e-5A
Ah = 7.816e-5C

Segment 3:
Ep = 0.211V
ip = -4.132e-5A
Ah = -7.544e-5C

Segment 4:
Ep = 0.305V
ip = 4.271e-5A
Ah = 7.606e-5C

Potential/V, Current/A, Charge/C

Segment 1:
0.267, 2.971e-6, 7.427e-8
0.266, 1.202e-6, 1.043e-7
0.265, -3.850e-7, 9.468e-8
0.264, -1.698e-6, 5.223e-8
0.263, -2.901e-6, -2.030e-8
0.262, -4.029e-6, -1.210e-7
0.261, -5.072e-6, -2.478e-7
0.260, -6.064e-6, -3.994e-7
0.259, -7.064e-6, -5.760e-7
0.258, -7.979e-6, -7.755e-7
0.257, -8.839e-6, -9.965e-7
0.256, -9.672e-6, -1.238e-6
0.255, -1.047e-5, -1.500e-6
0.254, -1.123e-5, -1.781e-6
0.253, -1.198e-5, -2.080e-6
0.252, -1.270e-5, -2.398e-6
0.251, -1.339e-5, -2.732e-6
0.250, -1.408e-5, -3.085e-6
0.249, -1.477e-5, -3.454e-6
0.248, -1.539e-5, -3.838e-6
0.247, -1.600e-5, -4.238e-6
0.246, -1.662e-5, -4.654e-6
0.245, -1.720e-5, -5.084e-6
0.244, -1.776e-5, -5.528e-6
0.243, -1.830e-5, -5.986e-6
0.242, -1.884e-5, -6.456e-6
0.241, -1.936e-5, -6.941e-6
0.240, -1.984e-5, -7.437e-6
0.239, -2.034e-5, -7.945e-6
0.238, -2.080e-5, -8.465e-6
0.237, -2.125e-5, -8.996e-6
0.236, -2.169e-5, -9.539e-6
0.235, -2.211e-5, -1.009e-5
0.234, -2.255e-5, -1.066e-5
0.233, -2.294e-5, -1.123e-5
0.232, -2.331e-5, -1.181e-5
0.231, -2.367e-5, -1.240e-5
0.230, -2.400e-5, -1.300e-5
0.229, -2.433e-5, -1.361e-5
0.228, -2.462e-5, -1.423e-5
0.227, -2.492e-5, -1.485e-5
0.226, -2.519e-5, -1.548e-5
0.225, -2.545e-5, -1.612e-5
0.224, -2.570e-5, -1.676e-5
0.223, -2.592e-5, -1.741e-5
0.222, -2.615e-5, -1.806e-5
0.221, -2.638e-5, -1.872e-5
0.220, -2.655e-5, -1.938e-5
0.219, -2.672e-5, -2.005e-5
0.218, -2.686e-5, -2.072e-5
0.217, -2.702e-5, -2.140e-5
0.216, -2.716e-5, -2.208e-5
0.215, -2.729e-5, -2.276e-5
0.214, -2.738e-5, -2.344e-5
0.213, -2.748e-5, -2.413e-5
0.212, -2.756e-5, -2.482e-5
0.211, -2.763e-5, -2.551e-5
0.210, -2.770e-5, -2.620e-5
0.209, -2.775e-5, -2.690e-5
0.208, -2.778e-5, -2.759e-5
0.207, -2.780e-5, -2.829e-5
0.206, -2.781e-5, -2.898e-5
0.205, -2.782e-5, -2.968e-5
0.204, -2.779e-5, -3.037e-5
0.203, -2.779e-5, -3.107e-5
0.202, -2.777e-5, -3.176e-5
0.201, -2.775e-5, -3.246e-5
0.200, -2.771e-5, -3.315e-5
0.199, -2.766e-5, -3.384e-5
0.198, -2.760e-5, -3.453e-5
0.197, -2.755e-5, -3.522e-5
0.196, -2.749e-5, -3.591e-5
0.195, -2.740e-5, -3.659e-5
0.194, -2.733e-5, -3.727e-5
0.193, -2.726e-5, -3.796e-5
0.192, -2.715e-5, -3.863e-5
0.191, -2.705e-5, -3.931e-5
0.190, -2.695e-5, -3.998e-5
0.189, -2.683e-5, -4.065e-5
0.188, -2.674e-5, -4.132e-5
0.187, -2.660e-5, -4.199e-5
0.186, -2.651e-5, -4.265e-5
0.185, -2.638e-5, -4.331e-5
0.184, -2.627e-5, -4.397e-5
0.183, -2.613e-5, -4.462e-5
0.182, -2.601e-5, -4.527e-5
0.181, -2.586e-5, -4.592e-5
0.180, -2.574e-5, -4.656e-5
0.179, -2.560e-5, -4.720e-5
0.178, -2.547e-5, -4.784e-5
0.177, -2.534e-5, -4.847e-5
0.176, -2.518e-5, -4.910e-5
0.175, -2.505e-5, -4.973e-5
0.174, -2.489e-5, -5.035e-5
0.173, -2.477e-5, -5.097e-5
0.172, -2.462e-5, -5.158e-5
0.171, -2.447e-5, -5.220e-5
0.170, -2.435e-5, -5.280e-5
0.169, -2.418e-5, -5.341e-5
0.168, -2.404e-5, -5.401e-5
0.167, -2.390e-5, -5.461e-5
0.166, -2.376e-5, -5.520e-5
0.165, -2.362e-5, -5.579e-5
0.164, -2.347e-5, -5.638e-5
0.163, -2.335e-5, -5.696e-5
0.162, -2.318e-5, -5.754e-5
0.161, -2.304e-5, -5.812e-5
0.160, -2.290e-5, -5.869e-5
0.159, -2.276e-5, -5.926e-5
0.158, -2.263e-5, -5.982e-5
0.157, -2.248e-5, -6.039e-5
0.156, -2.236e-5, -6.095e-5
0.155, -2.218e-5, -6.150e-5
0.154, -2.201e-5, -6.205e-5
0.153, -2.190e-5, -6.260e-5
0.152, -2.174e-5, -6.314e-5
0.151, -2.163e-5, -6.368e-5
0.150, -2.148e-5, -6.422e-5
0.149, -2.138e-5, -6.475e-5
0.148, -2.123e-5, -6.528e-5
0.147, -2.111e-5, -6.581e-5
0.146, -2.097e-5, -6.634e-5
0.145, -2.087e-5, -6.686e-5
0.144, -2.073e-5, -6.738e-5
0.143, -2.063e-5, -6.789e-5
0.142, -2.050e-5, -6.841e-5
0.141, -2.041e-5, -6.892e-5
0.140, -2.027e-5, -6.942e-5
0.139, -2.016e-5, -6.993e-5
0.138, -2.003e-5, -7.043e-5
0.137, -1.994e-5, -7.093e-5
0.136, -1.980e-5, -7.142e-5
0.135, -1.971e-5, -7.191e-5
0.134, -1.960e-5, -7.240e-5
0.133, -1.950e-5, -7.289e-5
0.132, -1.942e-5, -7.338e-5
0.131, -1.928e-5, -7.386e-5
0.130, -1.918e-5, -7.434e-5
0.129, -1.906e-5, -7.481e-5
0.128, -1.898e-5, -7.529e-5
0.127, -1.887e-5, -7.576e-5
0.126, -1.877e-5, -7.623e-5
0.125, -1.869e-5, -7.670e-5
0.124, -1.858e-5, -7.716e-5
0.123, -1.850e-5, -7.762e-5
0.122, -1.841e-5, -7.808e-5
0.121, -1.830e-5, -7.854e-5
0.120, -1.822e-5, -7.900e-5
0.119, -1.811e-5, -7.945e-5
0.118, -1.803e-5, -7.990e-5
0.117, -1.796e-5, -8.035e-5
0.116, -1.785e-5, -8.080e-5
0.115, -1.778e-5, -8.124e-5
0.114, -1.770e-5, -8.168e-5
0.113, -1.760e-5, -8.212e-5
0.112, -1.754e-5, -8.256e-5
0.111, -1.747e-5, -8.300e-5
0.110, -1.737e-5, -8.343e-5
0.109, -1.729e-5, -8.386e-5
0.108, -1.722e-5, -8.429e-5
0.107, -1.712e-5, -8.472e-5
0.106, -1.705e-5, -8.515e-5
0.105, -1.699e-5, -8.557e-5
0.104, -1.690e-5, -8.600e-5
0.103, -1.683e-5, -8.642e-5
0.102, -1.678e-5, -8.684e-5
0.101, -1.670e-5, -8.725e-5
0.100, -1.662e-5, -8.767e-5
0.099, -1.656e-5, -8.808e-5
0.098, -1.651e-5, -8.850e-5
0.097, -1.643e-5, -8.891e-5
0.096, -1.635e-5, -8.932e-5
0.095, -1.630e-5, -8.972e-5
0.094, -1.623e-5, -9.013e-5
0.093, -1.615e-5, -9.053e-5
0.092, -1.609e-5, -9.094e-5
0.091, -1.604e-5, -9.134e-5
0.090, -1.598e-5, -9.174e-5
0.089, -1.590e-5, -9.213e-5
0.088, -1.585e-5, -9.253e-5
0.087, -1.580e-5, -9.292e-5
0.086, -1.574e-5, -9.332e-5
0.085, -1.567e-5, -9.371e-5
0.084, -1.561e-5, -9.410e-5
0.083, -1.558e-5, -9.449e-5
0.082, -1.553e-5, -9.488e-5
0.081, -1.546e-5, -9.526e-5
0.080, -1.539e-5, -9.565e-5
0.079, -1.533e-5, -9.603e-5
0.078, -1.528e-5, -9.641e-5
0.077, -1.521e-5, -9.679e-5
0.076, -1.515e-5, -9.717e-5
0.075, -1.511e-5, -9.755e-5
0.074, -1.507e-5, -9.793e-5
0.073, -1.502e-5, -9.830e-5
0.072, -1.495e-5, -9.868e-5
0.071, -1.490e-5, -9.905e-5
0.070, -1.486e-5, -9.942e-5
0.069, -1.482e-5, -9.979e-5
0.068, -1.478e-5, -1.002e-4
0.067, -1.472e-5, -1.005e-4
0.066, -1.466e-5, -1.009e-4
0.065, -1.462e-5, -1.013e-4
0.064, -1.460e-5, -1.016e-4
0.063, -1.456e-5, -1.020e-4
0.062, -1.450e-5, -1.024e-4
0.061, -1.444e-5, -1.027e-4
0.060, -1.440e-5, -1.031e-4
0.059, -1.435e-5, -1.034e-4
0.058, -1.430e-5, -1.038e-4
0.057, -1.425e-5, -1.041e-4
0.056, -1.419e-5, -1.045e-4
0.055, -1.416e-5, -1.049e-4
0.054, -1.412e-5, -1.052e-4
0.053, -1.410e-5, -1.056e-4
0.052, -1.406e-5, -1.059e-4
0.051, -1.401e-5, -1.063e-4
0.050, -1.397e-5, -1.066e-4
0.049, -1.392e-5, -1.070e-4
0.048, -1.389e-5, -1.073e-4
0.047, -1.385e-5, -1.077e-4
0.046, -1.382e-5, -1.080e-4
0.045, -1.377e-5, -1.083e-4
0.044, -1.373e-5, -1.087e-4
0.043, -1.369e-5, -1.090e-4
0.042, -1.366e-5, -1.094e-4
0.041, -1.363e-5, -1.097e-4
0.040, -1.361e-5, -1.100e-4
0.039, -1.357e-5, -1.104e-4
0.038, -1.353e-5, -1.107e-4
0.037, -1.348e-5, -1.111e-4
0.036, -1.344e-5, -1.114e-4
0.035, -1.340e-5, -1.117e-4
0.034, -1.337e-5, -1.121e-4
0.033, -1.334e-5, -1.124e-4
0.032, -1.331e-5, -1.127e-4
0.031, -1.327e-5, -1.131e-4
0.030, -1.323e-5, -1.134e-4
0.029, -1.320e-5, -1.137e-4
0.028, -1.317e-5, -1.141e-4
0.027, -1.314e-5, -1.144e-4
0.026, -1.312e-5, -1.147e-4
0.025, -1.309e-5, -1.150e-4
0.024, -1.306e-5, -1.154e-4
0.023, -1.302e-5, -1.157e-4
0.022, -1.299e-5, -1.160e-4
0.021, -1.295e-5, -1.163e-4
0.020, -1.292e-5, -1.167e-4
0.019, -1.290e-5, -1.170e-4
0.018, -1.287e-5, -1.173e-4
0.017, -1.285e-5, -1.176e-4
0.016, -1.282e-5, -1.180e-4
0.015, -1.278e-5, -1.183e-4
0.014, -1.275e-5, -1.186e-4
0.013, -1.272e-5, -1.189e-4
0.012, -1.269e-5, -1.192e-4
0.011, -1.267e-5, -1.195e-4
0.010, -1.265e-5, -1.199e-4
0.009, -1.263e-5, -1.202e-4
0.008, -1.261e-5, -1.205e-4
0.007, -1.258e-5, -1.208e-4
0.006, -1.255e-5, -1.211e-4
0.005, -1.251e-5, -1.214e-4
0.004, -1.248e-5, -1.217e-4
0.003, -1.245e-5, -1.221e-4
0.002, -1.243e-5, -1.224e-4
0.001, -1.240e-5, -1.227e-4
-0.000, -1.236e-5, -1.230e-4

Segment 2:
0.001, -1.224e-5, -1.233e-4
0.002, -1.220e-5, -1.236e-4
0.003, -1.217e-5, -1.239e-4
0.004, -1.214e-5, -1.242e-4
0.005, -1.211e-5, -1.245e-4
0.006, -1.207e-5, -1.248e-4
0.007, -1.203e-5, -1.251e-4
0.008, -1.199e-5, -1.254e-4
0.009, -1.196e-5, -1.257e-4
0.010, -1.193e-5, -1.260e-4
0.011, -1.190e-5, -1.263e-4
0.012, -1.188e-5, -1.266e-4
0.013, -1.184e-5, -1.269e-4
0.014, -1.181e-5, -1.272e-4
0.015, -1.178e-5, -1.275e-4
0.016, -1.174e-5, -1.278e-4
0.017, -1.172e-5, -1.281e-4
0.018, -1.169e-5, -1.284e-4
0.019, -1.168e-5, -1.287e-4
0.020, -1.166e-5, -1.289e-4
0.021, -1.164e-5, -1.292e-4
0.022, -1.161e-5, -1.295e-4
0.023, -1.158e-5, -1.298e-4
0.024, -1.154e-5, -1.301e-4
0.025, -1.150e-5, -1.304e-4
0.026, -1.147e-5, -1.307e-4
0.027, -1.145e-5, -1.310e-4
0.028, -1.143e-5, -1.313e-4
0.029, -1.140e-5, -1.315e-4
0.030, -1.138e-5, -1.318e-4
0.031, -1.135e-5, -1.321e-4
0.032, -1.132e-5, -1.324e-4
0.033, -1.129e-5, -1.327e-4
0.034, -1.126e-5, -1.330e-4
0.035, -1.124e-5, -1.332e-4
0.036, -1.122e-5, -1.335e-4
0.037, -1.120e-5, -1.338e-4
0.038, -1.118e-5, -1.341e-4
0.039, -1.116e-5, -1.343e-4
0.040, -1.114e-5, -1.346e-4
0.041, -1.111e-5, -1.349e-4
0.042, -1.108e-5, -1.352e-4
0.043, -1.106e-5, -1.355e-4
0.044, -1.103e-5, -1.357e-4
0.045, -1.100e-5, -1.360e-4
0.046, -1.098e-5, -1.363e-4
0.047, -1.096e-5, -1.366e-4
0.048, -1.094e-5, -1.368e-4
0.049, -1.092e-5, -1.371e-4
0.050, -1.090e-5, -1.374e-4
0.051, -1.088e-5, -1.377e-4
0.052, -1.085e-5, -1.379e-4
0.053, -1.082e-5, -1.382e-4
0.054, -1.080e-5, -1.385e-4
0.055, -1.077e-5, -1.387e-4
0.056, -1.075e-5, -1.390e-4
0.057, -1.073e-5, -1.393e-4
0.058, -1.071e-5, -1.395e-4
0.059, -1.070e-5, -1.398e-4
0.060, -1.068e-5, -1.401e-4
0.061, -1.067e-5, -1.403e-4
0.062, -1.064e-5, -1.406e-4
0.063, -1.062e-5, -1.409e-4
0.064, -1.059e-5, -1.411e-4
0.065, -1.056e-5, -1.414e-4
0.066, -1.054e-5, -1.417e-4
0.067, -1.051e-5, -1.419e-4
0.068, -1.049e-5, -1.422e-4
0.069, -1.047e-5, -1.424e-4
0.070, -1.045e-5, -1.427e-4
0.071, -1.043e-5, -1.430e-4
0.072, -1.041e-5, -1.432e-4
0.073, -1.038e-5, -1.435e-4
0.074, -1.036e-5, -1.437e-4
0.075, -1.033e-5, -1.440e-4
0.076, -1.030e-5, -1.443e-4
0.077, -1.028e-5, -1.445e-4
0.078, -1.025e-5, -1.448e-4
0.079, -1.024e-5, -1.450e-4
0.080, -1.022e-5, -1.453e-4
0.081, -1.020e-5, -1.455e-4
0.082, -1.019e-5, -1.458e-4
0.083, -1.017e-5, -1.461e-4
0.084, -1.015e-5, -1.463e-4
0.085, -1.012e-5, -1.466e-4
0.086, -1.009e-5, -1.468e-4
0.087, -1.006e-5, -1.471e-4
0.088, -1.003e-5, -1.473e-4
0.089, -1.001e-5, -1.476e-4
0.090, -9.987e-6, -1.478e-4
0.091, -9.970e-6, -1.481e-4
0.092, -9.951e-6, -1.483e-4
0.093, -9.930e-6, -1.486e-4
0.094, -9.908e-6, -1.488e-4
0.095, -9.881e-6, -1.491e-4
0.096, -9.852e-6, -1.493e-4
0.097, -9.818e-6, -1.495e-4
0.098, -9.790e-6, -1.498e-4
0.099, -9.766e-6, -1.500e-4
0.100, -9.745e-6, -1.503e-4
0.101, -9.729e-6, -1.505e-4
0.102, -9.712e-6, -1.508e-4
0.103, -9.692e-6, -1.510e-4
0.104, -9.665e-6, -1.512e-4
0.105, -9.633e-6, -1.515e-4
0.106, -9.598e-6, -1.517e-4
0.107, -9.563e-6, -1.520e-4
0.108, -9.530e-6, -1.522e-4
0.109, -9.500e-6, -1.524e-4
0.110, -9.474e-6, -1.527e-4
0.111, -9.449e-6, -1.529e-4
0.112, -9.420e-6, -1.532e-4
0.113, -9.387e-6, -1.534e-4
0.114, -9.349e-6, -1.536e-4
0.115, -9.312e-6, -1.539e-4
0.116, -9.281e-6, -1.541e-4
0.117, -9.252e-6, -1.543e-4
0.118, -9.229e-6, -1.545e-4
0.119, -9.203e-6, -1.548e-4
0.120, -9.173e-6, -1.550e-4
0.121, -9.129e-6, -1.552e-4
0.122, -9.089e-6, -1.555e-4
0.123, -9.047e-6, -1.557e-4
0.124, -9.015e-6, -1.559e-4
0.125, -8.984e-6, -1.561e-4
0.126, -8.954e-6, -1.564e-4
0.127, -8.916e-6, -1.566e-4
0.128, -8.868e-6, -1.568e-4
0.129, -8.819e-6, -1.570e-4
0.130, -8.779e-6, -1.572e-4
0.131, -8.750e-6, -1.575e-4
0.132, -8.719e-6, -1.577e-4
0.133, -8.676e-6, -1.579e-4
0.134, -8.621e-6, -1.581e-4
0.135, -8.567e-6, -1.583e-4
0.136, -8.520e-6, -1.585e-4
0.137, -8.476e-6, -1.588e-4
0.138, -8.425e-6, -1.590e-4
0.139, -8.361e-6, -1.592e-4
0.140, -8.304e-6, -1.594e-4
0.141, -8.262e-6, -1.596e-4
0.142, -8.224e-6, -1.598e-4
0.143, -8.165e-6, -1.600e-4
0.144, -8.090e-6, -1.602e-4
0.145, -8.033e-6, -1.604e-4
0.146, -7.989e-6, -1.606e-4
0.147, -7.921e-6, -1.608e-4
0.148, -7.843e-6, -1.610e-4
0.149, -7.787e-6, -1.612e-4
0.150, -7.741e-6, -1.614e-4
0.151, -7.661e-6, -1.616e-4
0.152, -7.571e-6, -1.618e-4
0.153, -7.498e-6, -1.620e-4
0.154, -7.414e-6, -1.621e-4
0.155, -7.327e-6, -1.623e-4
0.156, -7.268e-6, -1.625e-4
0.157, -7.188e-6, -1.627e-4
0.158, -7.084e-6, -1.629e-4
0.159, -7.019e-6, -1.630e-4
0.160, -6.923e-6, -1.632e-4
0.161, -6.825e-6, -1.634e-4
0.162, -6.758e-6, -1.635e-4
0.163, -6.631e-6, -1.637e-4
0.164, -6.484e-6, -1.639e-4
0.165, -6.360e-6, -1.640e-4
0.166, -6.276e-6, -1.642e-4
0.167, -6.149e-6, -1.643e-4
0.168, -6.050e-6, -1.645e-4
0.169, -5.922e-6, -1.646e-4
0.170, -5.815e-6, -1.648e-4
0.171, -5.699e-6, -1.649e-4
0.172, -5.565e-6, -1.651e-4
0.173, -5.420e-6, -1.652e-4
0.174, -5.303e-6, -1.653e-4
0.175, -5.152e-6, -1.655e-4
0.176, -5.031e-6, -1.656e-4
0.177, -4.873e-6, -1.657e-4
0.178, -4.750e-6, -1.658e-4
0.179, -4.582e-6, -1.659e-4
0.180, -4.403e-6, -1.661e-4
0.181, -4.264e-6, -1.662e-4
0.182, -4.093e-6, -1.663e-4
0.183, -3.914e-6, -1.664e-4
0.184, -3.773e-6, -1.665e-4
0.185, -3.568e-6, -1.666e-4
0.186, -3.372e-6, -1.666e-4
0.187, -3.174e-6, -1.667e-4
0.188, -2.988e-6, -1.668e-4
0.189, -2.806e-6, -1.669e-4
0.190, -2.581e-6, -1.669e-4
0.191, -2.369e-6, -1.670e-4
0.192, -2.147e-6, -1.670e-4
0.193, -1.928e-6, -1.671e-4
0.194, -1.704e-6, -1.671e-4
0.195, -1.456e-6, -1.672e-4
0.196, -1.220e-6, -1.672e-4
0.197, -9.784e-7, -1.672e-4
0.198, -7.332e-7, -1.672e-4
0.199, -4.620e-7, -1.672e-4
0.200, -2.022e-7, -1.673e-4
0.201, 6.473e-8, -1.673e-4
0.202, 4.051e-7, -1.672e-4
0.203, 7.082e-7, -1.672e-4
0.204, 1.012e-6, -1.672e-4
0.205, 1.302e-6, -1.672e-4
0.206, 1.597e-6, -1.671e-4
0.207, 1.918e-6, -1.671e-4
0.208, 2.242e-6, -1.670e-4
0.209, 2.556e-6, -1.670e-4
0.210, 2.884e-6, -1.669e-4
0.211, 3.223e-6, -1.668e-4
0.212, 3.571e-6, -1.667e-4
0.213, 3.932e-6, -1.666e-4
0.214, 4.273e-6, -1.665e-4
0.215, 4.649e-6, -1.664e-4
0.216, 5.015e-6, -1.663e-4
0.217, 5.382e-6, -1.661e-4
0.218, 5.765e-6, -1.660e-4
0.219, 6.160e-6, -1.658e-4
0.220, 6.548e-6, -1.657e-4
0.221, 6.929e-6, -1.655e-4
0.222, 7.342e-6, -1.653e-4
0.223, 7.750e-6, -1.651e-4
0.224, 8.180e-6, -1.649e-4
0.225, 8.609e-6, -1.647e-4
0.226, 9.104e-6, -1.645e-4
0.227, 9.534e-6, -1.642e-4
0.228, 9.980e-6, -1.640e-4
0.229, 1.043e-5, -1.637e-4
0.230, 1.088e-5, -1.635e-4
0.231, 1.133e-5, -1.632e-4
0.232, 1.180e-5, -1.629e-4
0.233, 1.226e-5, -1.626e-4
0.234, 1.272e-5, -1.623e-4
0.235, 1.319e-5, -1.619e-4
0.236, 1.367e-5, -1.616e-4
0.237, 1.417e-5, -1.612e-4
0.238, 1.465e-5, -1.609e-4
0.239, 1.511e-5, -1.605e-4
0.240, 1.561e-5, -1.601e-4
0.241, 1.612e-5, -1.597e-4
0.242, 1.663e-5, -1.593e-4
0.243, 1.714e-5, -1.588e-4
0.244, 1.765e-5, -1.584e-4
0.245, 1.815e-5, -1.579e-4
0.246, 1.865e-5, -1.575e-4
0.247, 1.916e-5, -1.570e-4
0.248, 1.967e-5, -1.565e-4
0.249, 2.016e-5, -1.560e-4
0.250, 2.068e-5, -1.555e-4
0.251, 2.117e-5, -1.550e-4
0.252, 2.169e-5, -1.544e-4
0.253, 2.218e-5, -1.539e-4
0.254, 2.268e-5, -1.533e-4
0.255, 2.317e-5, -1.527e-4
0.256, 2.368e-5, -1.521e-4
0.257, 2.417e-5, -1.515e-4
0.258, 2.472e-5, -1.509e-4
0.259, 2.522e-5, -1.503e-4
0.260, 2.570e-5, -1.496e-4
0.261, 2.617e-5, -1.490e-4
0.262, 2.665e-5, -1.483e-4
0.263, 2.712e-5, -1.476e-4
0.264, 2.758e-5, -1.469e-4
0.265, 2.804e-5, -1.462e-4
0.266, 2.849e-5, -1.455e-4
0.267, 2.893e-5, -1.448e-4
0.268, 2.936e-5, -1.441e-4
0.269, 2.979e-5, -1.433e-4
0.270, 3.022e-5, -1.426e-4
0.271, 3.063e-5, -1.418e-4
0.272, 3.103e-5, -1.410e-4
0.273, 3.146e-5, -1.402e-4
0.274, 3.184e-5, -1.394e-4
0.275, 3.221e-5, -1.386e-4
0.276, 3.255e-5, -1.378e-4
0.277, 3.292e-5, -1.370e-4
0.278, 3.327e-5, -1.362e-4
0.279, 3.359e-5, -1.353e-4
0.280, 3.393e-5, -1.345e-4
0.281, 3.424e-5, -1.336e-4
0.282, 3.454e-5, -1.328e-4
0.283, 3.483e-5, -1.319e-4
0.284, 3.512e-5, -1.310e-4
0.285, 3.540e-5, -1.301e-4
0.286, 3.565e-5, -1.292e-4
0.287, 3.590e-5, -1.283e-4
0.288, 3.613e-5, -1.274e-4
0.289, 3.637e-5, -1.265e-4
0.290, 3.655e-5, -1.256e-4
0.291, 3.673e-5, -1.247e-4
0.292, 3.692e-5, -1.238e-4
0.293, 3.712e-5, -1.228e-4
0.294, 3.728e-5, -1.219e-4
0.295, 3.741e-5, -1.210e-4
0.296, 3.754e-5, -1.200e-4
0.297, 3.765e-5, -1.191e-4
0.298, 3.775e-5, -1.182e-4
0.299, 3.785e-5, -1.172e-4
0.300, 3.791e-5, -1.163e-4
0.301, 3.798e-5, -1.153e-4
0.302, 3.804e-5, -1.144e-4
0.303, 3.807e-5, -1.134e-4
0.304, 3.810e-5, -1.125e-4
0.305, 3.812e-5, -1.115e-4
0.306, 3.812e-5, -1.106e-4
0.307, 3.812e-5, -1.096e-4
0.308, 3.811e-5, -1.086e-4
0.309, 3.808e-5, -1.077e-4
0.310, 3.805e-5, -1.067e-4
0.311, 3.799e-5, -1.058e-4
0.312, 3.792e-5, -1.048e-4
0.313, 3.786e-5, -1.039e-4
0.314, 3.779e-5, -1.030e-4
0.315, 3.771e-5, -1.020e-4
0.316, 3.761e-5, -1.011e-4
0.317, 3.751e-5, -1.001e-4
0.318, 3.740e-5, -9.920e-5
0.319, 3.729e-5, -9.827e-5
0.320, 3.716e-5, -9.734e-5
0.321, 3.702e-5, -9.641e-5
0.322, 3.688e-5, -9.549e-5
0.323, 3.675e-5, -9.457e-5
0.324, 3.659e-5, -9.366e-5
0.325, 3.644e-5, -9.275e-5
0.326, 3.629e-5, -9.184e-5
0.327, 3.612e-5, -9.094e-5
0.328, 3.594e-5, -9.004e-5
0.329, 3.578e-5, -8.914e-5
0.330, 3.559e-5, -8.825e-5
0.331, 3.542e-5, -8.737e-5
0.332, 3.524e-5, -8.649e-5
0.333, 3.504e-5, -8.561e-5
0.334, 3.485e-5, -8.474e-5
0.335, 3.465e-5, -8.387e-5
0.336, 3.446e-5, -8.301e-5
0.337, 3.428e-5, -8.216e-5
0.338, 3.408e-5, -8.130e-5
0.339, 3.388e-5, -8.046e-5
0.340, 3.367e-5, -7.961e-5
0.341, 3.349e-5, -7.878e-5
0.342, 3.330e-5, -7.795e-5
0.343, 3.309e-5, -7.712e-5
0.344, 3.288e-5, -7.630e-5
0.345, 3.267e-5, -7.548e-5
0.346, 3.248e-5, -7.467e-5
0.347, 3.230e-5, -7.386e-5
0.348, 3.210e-5, -7.306e-5
0.349, 3.191e-5, -7.226e-5
0.350, 3.171e-5, -7.147e-5
0.351, 3.151e-5, -7.068e-5
0.352, 3.130e-5, -6.990e-5
0.353, 3.109e-5, -6.912e-5
0.354, 3.091e-5, -6.835e-5
0.355, 3.070e-5, -6.758e-5
0.356, 3.051e-5, -6.682e-5
0.357, 3.033e-5, -6.606e-5
0.358, 3.013e-5, -6.530e-5
0.359, 2.995e-5, -6.456e-5
0.360, 2.976e-5, -6.381e-5
0.361, 2.958e-5, -6.307e-5
0.362, 2.939e-5, -6.234e-5
0.363, 2.920e-5, -6.161e-5
0.364, 2.902e-5, -6.088e-5
0.365, 2.884e-5, -6.016e-5
0.366, 2.867e-5, -5.944e-5
0.367, 2.849e-5, -5.873e-5
0.368, 2.830e-5, -5.802e-5
0.369, 2.814e-5, -5.732e-5
0.370, 2.798e-5, -5.662e-5
0.371, 2.780e-5, -5.593e-5
0.372, 2.764e-5, -5.524e-5
0.373, 2.747e-5, -5.455e-5
0.374, 2.729e-5, -5.387e-5
0.375, 2.713e-5, -5.319e-5
0.376, 2.699e-5, -5.251e-5
0.377, 2.681e-5, -5.184e-5
0.378, 2.666e-5, -5.118e-5
0.379, 2.651e-5, -5.051e-5
0.380, 2.635e-5, -4.986e-5
0.381, 2.620e-5, -4.920e-5
0.382, 2.606e-5, -4.855e-5
0.383, 2.590e-5, -4.790e-5
0.384, 2.577e-5, -4.726e-5
0.385, 2.563e-5, -4.662e-5
0.386, 2.548e-5, -4.598e-5
0.387, 2.533e-5, -4.535e-5
0.388, 2.519e-5, -4.472e-5
0.389, 2.507e-5, -4.409e-5
0.390, 2.492e-5, -4.347e-5
0.391, 2.479e-5, -4.285e-5
0.392, 2.464e-5, -4.223e-5
0.393, 2.450e-5, -4.162e-5
0.394, 2.434e-5, -4.101e-5
0.395, 2.420e-5, -4.041e-5
0.396, 2.409e-5, -3.980e-5
0.397, 2.396e-5, -3.920e-5
0.398, 2.384e-5, -3.861e-5
0.399, 2.372e-5, -3.802e-5
0.400, 2.361e-5, -3.742e-5
0.401, 2.347e-5, -3.684e-5
0.402, 2.334e-5, -3.625e-5
0.403, 2.323e-5, -3.567e-5
0.404, 2.312e-5, -3.510e-5
0.405, 2.301e-5, -3.452e-5
0.406, 2.290e-5, -3.395e-5
0.407, 2.279e-5, -3.338e-5
0.408, 2.268e-5, -3.281e-5
0.409, 2.258e-5, -3.225e-5
0.410, 2.246e-5, -3.169e-5
0.411, 2.236e-5, -3.113e-5
0.412, 2.226e-5, -3.057e-5
0.413, 2.216e-5, -3.002e-5
0.414, 2.206e-5, -2.946e-5
0.415, 2.196e-5, -2.892e-5
0.416, 2.186e-5, -2.837e-5
0.417, 2.177e-5, -2.782e-5
0.418, 2.168e-5, -2.728e-5
0.419, 2.158e-5, -2.674e-5
0.420, 2.148e-5, -2.621e-5
0.421, 2.138e-5, -2.567e-5
0.422, 2.129e-5, -2.514e-5
0.423, 2.120e-5, -2.461e-5
0.424, 2.112e-5, -2.408e-5
0.425, 2.102e-5, -2.356e-5
0.426, 2.094e-5, -2.303e-5
0.427, 2.085e-5, -2.251e-5
0.428, 2.077e-5, -2.199e-5
0.429, 2.069e-5, -2.147e-5
0.430, 2.060e-5, -2.096e-5
0.431, 2.051e-5, -2.045e-5
0.432, 2.043e-5, -1.994e-5
0.433, 2.035e-5, -1.943e-5
0.434, 2.027e-5, -1.892e-5
0.435, 2.019e-5, -1.842e-5
0.436, 2.011e-5, -1.791e-5
0.437, 2.003e-5, -1.741e-5
0.438, 1.996e-5, -1.691e-5
0.439, 1.988e-5, -1.642e-5
0.440, 1.981e-5, -1.592e-5
0.441, 1.974e-5, -1.543e-5
0.442, 1.967e-5, -1.494e-5
0.443, 1.959e-5, -1.445e-5
0.444, 1.951e-5, -1.396e-5
0.445, 1.944e-5, -1.347e-5
0.446, 1.937e-5, -1.299e-5
0.447, 1.930e-5, -1.251e-5
0.448, 1.923e-5, -1.202e-5
0.449, 1.917e-5, -1.155e-5
0.450, 1.909e-5, -1.107e-5
0.451, 1.903e-5, -1.059e-5
0.452, 1.896e-5, -1.012e-5
0.453, 1.890e-5, -9.646e-6
0.454, 1.883e-5, -9.175e-6
0.455, 1.877e-5, -8.706e-6
0.456, 1.871e-5, -8.238e-6
0.457, 1.864e-5, -7.772e-6
0.458, 1.858e-5, -7.308e-6
0.459, 1.852e-5, -6.845e-6
0.460, 1.846e-5, -6.384e-6
0.461, 1.839e-5, -5.924e-6
0.462, 1.833e-5, -5.465e-6
0.463, 1.828e-5, -5.008e-6
0.464, 1.822e-5, -4.553e-6
0.465, 1.816e-5, -4.099e-6
0.466, 1.810e-5, -3.646e-6
0.467, 1.804e-5, -3.195e-6
0.468, 1.799e-5, -2.745e-6
0.469, 1.794e-5, -2.297e-6
0.470, 1.788e-5, -1.850e-6
0.471, 1.783e-5, -1.404e-6
0.472, 1.779e-5, -9.595e-7
0.473, 1.773e-5, -5.162e-7
0.474, 1.767e-5, -7.444e-8
0.475, 1.761e-5, 3.658e-7
0.476, 1.755e-5, 8.046e-7
0.477, 1.750e-5, 1.242e-6
0.478, 1.745e-5, 1.678e-6
0.479, 1.739e-5, 2.113e-6
0.480, 1.735e-5, 2.547e-6
0.481, 1.730e-5, 2.979e-6
0.482, 1.725e-5, 3.410e-6
0.483, 1.720e-5, 3.840e-6
0.484, 1.714e-5, 4.269e-6
0.485, 1.710e-5, 4.696e-6
0.486, 1.705e-5, 5.123e-6
0.487, 1.700e-5, 5.548e-6
0.488, 1.696e-5, 5.972e-6
0.489, 1.691e-5, 6.394e-6
0.490, 1.687e-5, 6.816e-6
0.491, 1.683e-5, 7.237e-6
0.492, 1.678e-5, 7.656e-6
0.493, 1.674e-5, 8.075e-6
0.494, 1.668e-5, 8.492e-6
0.495, 1.663e-5, 8.908e-6
0.496, 1.658e-5, 9.322e-6
0.497, 1.653e-5, 9.735e-6
0.498, 1.648e-5, 1.015e-5
0.499, 1.644e-5, 1.056e-5
0.500, 1.637e-5, 1.097e-5

Segment 3:
0.499, 1.625e-5, 1.137e-5
0.498, 1.617e-5, 1.178e-5
0.497, 1.610e-5, 1.218e-5
0.496, 1.604e-5, 1.258e-5
0.495, 1.598e-5, 1.298e-5
0.494, 1.593e-5, 1.338e-5
0.493, 1.588e-5, 1.378e-5
0.492, 1.583e-5, 1.417e-5
0.491, 1.577e-5, 1.457e-5
0.490, 1.571e-5, 1.496e-5
0.489, 1.565e-5, 1.535e-5
0.488, 1.560e-5, 1.574e-5
0.487, 1.555e-5, 1.613e-5
0.486, 1.549e-5, 1.652e-5
0.485, 1.545e-5, 1.690e-5
0.484, 1.541e-5, 1.729e-5
0.483, 1.537e-5, 1.767e-5
0.482, 1.533e-5, 1.806e-5
0.481, 1.528e-5, 1.844e-5
0.480, 1.523e-5, 1.882e-5
0.479, 1.519e-5, 1.920e-5
0.478, 1.515e-5, 1.958e-5
0.477, 1.510e-5, 1.995e-5
0.476, 1.506e-5, 2.033e-5
0.475, 1.501e-5, 2.071e-5
0.474, 1.497e-5, 2.108e-5
0.473, 1.493e-5, 2.145e-5
0.472, 1.490e-5, 2.183e-5
0.471, 1.486e-5, 2.220e-5
0.470, 1.482e-5, 2.257e-5
0.469, 1.478e-5, 2.294e-5
0.468, 1.473e-5, 2.331e-5
0.467, 1.469e-5, 2.367e-5
0.466, 1.464e-5, 2.404e-5
0.465, 1.461e-5, 2.440e-5
0.464, 1.456e-5, 2.477e-5
0.463, 1.452e-5, 2.513e-5
0.462, 1.448e-5, 2.549e-5
0.461, 1.445e-5, 2.585e-5
0.460, 1.442e-5, 2.621e-5
0.459, 1.438e-5, 2.657e-5
0.458, 1.434e-5, 2.693e-5
0.457, 1.431e-5, 2.729e-5
0.456, 1.427e-5, 2.765e-5
0.455, 1.422e-5, 2.800e-5
0.454, 1.419e-5, 2.836e-5
0.453, 1.415e-5, 2.871e-5
0.452, 1.411e-5, 2.906e-5
0.451, 1.407e-5, 2.942e-5
0.450, 1.403e-5, 2.977e-5
0.449, 1.400e-5, 3.012e-5
0.448, 1.397e-5, 3.047e-5
0.447, 1.394e-5, 3.081e-5
0.446, 1.391e-5, 3.116e-5
0.445, 1.387e-5, 3.151e-5
0.444, 1.383e-5, 3.185e-5
0.443, 1.379e-5, 3.220e-5
0.442, 1.375e-5, 3.254e-5
0.441, 1.371e-5, 3.289e-5
0.440, 1.367e-5, 3.323e-5
0.439, 1.363e-5, 3.357e-5
0.438, 1.359e-5, 3.391e-5
0.437, 1.356e-5, 3.425e-5
0.436, 1.352e-5, 3.458e-5
0.435, 1.349e-5, 3.492e-5
0.434, 1.346e-5, 3.526e-5
0.433, 1.343e-5, 3.559e-5
0.432, 1.339e-5, 3.593e-5
0.431, 1.336e-5, 3.626e-5
0.430, 1.332e-5, 3.660e-5
0.429, 1.328e-5, 3.693e-5
0.428, 1.325e-5, 3.726e-5
0.427, 1.321e-5, 3.759e-5
0.426, 1.317e-5, 3.792e-5
0.425, 1.313e-5, 3.825e-5
0.424, 1.309e-5, 3.857e-5
0.423, 1.306e-5, 3.890e-5
0.422, 1.302e-5, 3.923e-5
0.421, 1.299e-5, 3.955e-5
0.420, 1.295e-5, 3.987e-5
0.419, 1.292e-5, 4.020e-5
0.418, 1.289e-5, 4.052e-5
0.417, 1.285e-5, 4.084e-5
0.416, 1.281e-5, 4.116e-5
0.415, 1.276e-5, 4.148e-5
0.414, 1.272e-5, 4.180e-5
0.413, 1.268e-5, 4.212e-5
0.412, 1.264e-5, 4.243e-5
0.411, 1.260e-5, 4.275e-5
0.410, 1.256e-5, 4.306e-5
0.409, 1.253e-5, 4.337e-5
0.408, 1.249e-5, 4.369e-5
0.407, 1.245e-5, 4.400e-5
0.406, 1.242e-5, 4.431e-5
0.405, 1.238e-5, 4.462e-5
0.404, 1.233e-5, 4.493e-5
0.403, 1.229e-5, 4.523e-5
0.402, 1.224e-5, 4.554e-5
0.401, 1.220e-5, 4.584e-5
0.400, 1.215e-5, 4.615e-5
0.399, 1.212e-5, 4.645e-5
0.398, 1.207e-5, 4.675e-5
0.397, 1.203e-5, 4.705e-5
0.396, 1.199e-5, 4.735e-5
0.395, 1.195e-5, 4.765e-5
0.394, 1.190e-5, 4.795e-5
0.393, 1.184e-5, 4.824e-5
0.392, 1.179e-5, 4.854e-5
0.391, 1.174e-5, 4.883e-5
0.390, 1.169e-5, 4.912e-5
0.389, 1.163e-5, 4.942e-5
0.388, 1.158e-5, 4.971e-5
0.387, 1.153e-5, 4.999e-5
0.386, 1.149e-5, 5.028e-5
0.385, 1.144e-5, 5.057e-5
0.384, 1.138e-5, 5.085e-5
0.383, 1.132e-5, 5.113e-5
0.382, 1.126e-5, 5.142e-5
0.381, 1.120e-5, 5.170e-5
0.380, 1.114e-5, 5.197e-5
0.379, 1.108e-5, 5.225e-5
0.378, 1.103e-5, 5.253e-5
0.377, 1.097e-5, 5.280e-5
0.376, 1.090e-5, 5.307e-5
0.375, 1.084e-5, 5.334e-5
0.374, 1.076e-5, 5.361e-5
0.373, 1.070e-5, 5.388e-5
0.372, 1.063e-5, 5.415e-5
0.371, 1.055e-5, 5.441e-5
0.370, 1.048e-5, 5.467e-5
0.369, 1.042e-5, 5.493e-5
0.368, 1.034e-5, 5.519e-5
0.367, 1.025e-5, 5.545e-5
0.366, 1.018e-5, 5.570e-5
0.365, 1.010e-5, 5.596e-5
0.364, 1.002e-5, 5.621e-5
0.363, 9.940e-6, 5.645e-5
0.362, 9.836e-6, 5.670e-5
0.361, 9.737e-6, 5.694e-5
0.360, 9.648e-6, 5.719e-5
0.359, 9.552e-6, 5.742e-5
0.358, 9.461e-6, 5.766e-5
0.357, 9.358e-6, 5.789e-5
0.356, 9.247e-6, 5.813e-5
0.355, 9.153e-6, 5.835e-5
0.354, 9.044e-6, 5.858e-5
0.353, 8.929e-6, 5.880e-5
0.352, 8.767e-6, 5.902e-5
0.351, 8.632e-6, 5.924e-5
0.350, 8.519e-6, 5.945e-5
0.349, 8.403e-6, 5.966e-5
0.348, 8.266e-6, 5.987e-5
0.347, 8.142e-6, 6.007e-5
0.346, 8.017e-6, 6.027e-5
0.345, 7.868e-6, 6.047e-5
0.344, 7.713e-6, 6.066e-5
0.343, 7.565e-6, 6.085e-5
0.342, 7.425e-6, 6.104e-5
0.341, 7.272e-6, 6.122e-5
0.340, 7.112e-6, 6.140e-5
0.339, 6.969e-6, 6.157e-5
0.338, 6.785e-6, 6.174e-5
0.337, 6.618e-6, 6.191e-5
0.336, 6.458e-6, 6.207e-5
0.335, 6.271e-6, 6.222e-5
0.334, 6.100e-6, 6.238e-5
0.333, 5.908e-6, 6.252e-5
0.332, 5.713e-6, 6.267e-5
0.331, 5.516e-6, 6.280e-5
0.330, 5.310e-6, 6.294e-5
0.329, 5.103e-6, 6.306e-5
0.328, 4.887e-6, 6.319e-5
0.327, 4.666e-6, 6.330e-5
0.326, 4.440e-6, 6.341e-5
0.325, 4.225e-6, 6.352e-5
0.324, 3.988e-6, 6.362e-5
0.323, 3.732e-6, 6.371e-5
0.322, 3.485e-6, 6.380e-5
0.321, 3.234e-6, 6.388e-5
0.320, 2.976e-6, 6.396e-5
0.319, 2.705e-6, 6.402e-5
0.318, 2.434e-6, 6.408e-5
0.317, 2.178e-6, 6.414e-5
0.316, 1.878e-6, 6.419e-5
0.315, 1.583e-6, 6.423e-5
0.314, 1.302e-6, 6.426e-5
0.313, 9.632e-7, 6.428e-5
0.312, 6.363e-7, 6.430e-5
0.311, 3.199e-7, 6.431e-5
0.310, -6.208e-8, 6.430e-5
0.309, -3.847e-7, 6.429e-5
0.308, -7.287e-7, 6.428e-5
0.307, -1.069e-6, 6.425e-5
0.306, -1.431e-6, 6.421e-5
0.305, -1.785e-6, 6.417e-5
0.304, -2.127e-6, 6.412e-5
0.303, -2.502e-6, 6.405e-5
0.302, -2.873e-6, 6.398e-5
0.301, -3.249e-6, 6.390e-5
0.300, -3.654e-6, 6.381e-5
0.299, -4.033e-6, 6.371e-5
0.298, -4.433e-6, 6.360e-5
0.297, -4.847e-6, 6.348e-5
0.296, -5.242e-6, 6.335e-5
0.295, -5.660e-6, 6.320e-5
0.294, -6.086e-6, 6.305e-5
0.293, -6.540e-6, 6.289e-5
0.292, -7.009e-6, 6.271e-5
0.291, -7.442e-6, 6.253e-5
0.290, -7.898e-6, 6.233e-5
0.289, -8.343e-6, 6.212e-5
0.288, -8.798e-6, 6.190e-5
0.287, -9.245e-6, 6.167e-5
0.286, -9.721e-6, 6.143e-5
0.285, -1.018e-5, 6.117e-5
0.284, -1.066e-5, 6.091e-5
0.283, -1.112e-5, 6.063e-5
0.282, -1.162e-5, 6.034e-5
0.281, -1.208e-5, 6.004e-5
0.280, -1.258e-5, 5.972e-5
0.279, -1.306e-5, 5.939e-5
0.278, -1.357e-5, 5.906e-5
0.277, -1.406e-5, 5.870e-5
0.276, -1.457e-5, 5.834e-5
0.275, -1.505e-5, 5.796e-5
0.274, -1.558e-5, 5.757e-5
0.273, -1.606e-5, 5.717e-5
0.272, -1.655e-5, 5.676e-5
0.271, -1.704e-5, 5.633e-5
0.270, -1.758e-5, 5.589e-5
0.269, -1.807e-5, 5.544e-5
0.268, -1.859e-5, 5.498e-5
0.267, -1.907e-5, 5.450e-5
0.266, -1.960e-5, 5.401e-5
0.265, -2.008e-5, 5.351e-5
0.264, -2.058e-5, 5.299e-5
0.263, -2.105e-5, 5.247e-5
0.262, -2.157e-5, 5.193e-5
0.261, -2.207e-5, 5.138e-5
0.260, -2.260e-5, 5.081e-5
0.259, -2.308e-5, 5.023e-5
0.258, -2.357e-5, 4.964e-5
0.257, -2.404e-5, 4.904e-5
0.256, -2.450e-5, 4.843e-5
0.255, -2.498e-5, 4.781e-5
0.254, -2.544e-5, 4.717e-5
0.253, -2.588e-5, 4.652e-5
0.252, -2.635e-5, 4.586e-5
0.251, -2.678e-5, 4.520e-5
0.250, -2.721e-5, 4.452e-5
0.249, -2.764e-5, 4.382e-5
0.248, -2.806e-5, 4.312e-5
0.247, -2.847e-5, 4.241e-5
0.246, -2.887e-5, 4.169e-5
0.245, -2.926e-5, 4.096e-5
0.244, -2.963e-5, 4.022e-5
0.243, -3.001e-5, 3.947e-5
0.242, -3.037e-5, 3.871e-5
0.241, -3.072e-5, 3.794e-5
0.240, -3.107e-5, 3.716e-5
0.239, -3.142e-5, 3.638e-5
0.238, -3.172e-5, 3.558e-5
0.237, -3.205e-5, 3.478e-5
0.236, -3.236e-5, 3.397e-5
0.235, -3.264e-5, 3.316e-5
0.234, -3.291e-5, 3.234e-5
0.233, -3.320e-5, 3.151e-5
0.232, -3.344e-5, 3.067e-5
0.231, -3.368e-5, 2.983e-5
0.230, -3.391e-5, 2.898e-5
0.229, -3.413e-5, 2.813e-5
0.228, -3.433e-5, 2.727e-5
0.227, -3.452e-5, 2.640e-5
0.226, -3.469e-5, 2.554e-5
0.225, -3.487e-5, 2.467e-5
0.224, -3.505e-5, 2.379e-5
0.223, -3.517e-5, 2.291e-5
0.222, -3.531e-5, 2.203e-5
0.221, -3.543e-5, 2.114e-5
0.220, -3.554e-5, 2.025e-5
0.219, -3.562e-5, 1.936e-5
0.218, -3.570e-5, 1.847e-5
0.217, -3.578e-5, 1.758e-5
0.216, -3.583e-5, 1.668e-5
0.215, -3.588e-5, 1.578e-5
0.214, -3.591e-5, 1.489e-5
0.213, -3.593e-5, 1.399e-5
0.212, -3.594e-5, 1.309e-5
0.211, -3.595e-5, 1.219e-5
0.210, -3.594e-5, 1.129e-5
0.209, -3.591e-5, 1.039e-5
0.208, -3.589e-5, 9.496e-6
0.207, -3.584e-5, 8.600e-6
0.206, -3.579e-5, 7.705e-6
0.205, -3.571e-5, 6.813e-6
0.204, -3.561e-5, 5.922e-6
0.203, -3.557e-5, 5.033e-6
0.202, -3.547e-5, 4.146e-6
0.201, -3.538e-5, 3.262e-6
0.200, -3.530e-5, 2.379e-6
0.199, -3.517e-5, 1.500e-6
0.198, -3.509e-5, 6.229e-7
0.197, -3.496e-5, -2.510e-7
0.196, -3.482e-5, -1.121e-6
0.195, -3.467e-5, -1.988e-6
0.194, -3.455e-5, -2.852e-6
0.193, -3.439e-5, -3.712e-6
0.192, -3.424e-5, -4.568e-6
0.191, -3.411e-5, -5.420e-6
0.190, -3.393e-5, -6.269e-6
0.189, -3.376e-5, -7.113e-6
0.188, -3.361e-5, -7.953e-6
0.187, -3.343e-5, -8.789e-6
0.186, -3.326e-5, -9.620e-6
0.185, -3.310e-5, -1.045e-5
0.184, -3.291e-5, -1.127e-5
0.183, -3.271e-5, -1.209e-5
0.182, -3.254e-5, -1.290e-5
0.181, -3.237e-5, -1.371e-5
0.180, -3.218e-5, -1.452e-5
0.179, -3.198e-5, -1.531e-5
0.178, -3.178e-5, -1.611e-5
0.177, -3.161e-5, -1.690e-5
0.176, -3.142e-5, -1.769e-5
0.175, -3.122e-5, -1.847e-5
0.174, -3.101e-5, -1.924e-5
0.173, -3.080e-5, -2.001e-5
0.172, -3.062e-5, -2.078e-5
0.171, -3.044e-5, -2.154e-5
0.170, -3.025e-5, -2.229e-5
0.169, -3.005e-5, -2.305e-5
0.168, -2.988e-5, -2.379e-5
0.167, -2.971e-5, -2.453e-5
0.166, -2.951e-5, -2.527e-5
0.165, -2.931e-5, -2.601e-5
0.164, -2.913e-5, -2.673e-5
0.163, -2.894e-5, -2.746e-5
0.162, -2.876e-5, -2.818e-5
0.161, -2.856e-5, -2.889e-5
0.160, -2.838e-5, -2.960e-5
0.159, -2.823e-5, -3.031e-5
0.158, -2.803e-5, -3.101e-5
0.157, -2.783e-5, -3.170e-5
0.156, -2.767e-5, -3.239e-5
0.155, -2.750e-5, -3.308e-5
0.154, -2.732e-5, -3.376e-5
0.153, -2.715e-5, -3.444e-5
0.152, -2.697e-5, -3.512e-5
0.151, -2.680e-5, -3.579e-5
0.150, -2.662e-5, -3.645e-5
0.149, -2.647e-5, -3.711e-5
0.148, -2.631e-5, -3.777e-5
0.147, -2.613e-5, -3.842e-5
0.146, -2.597e-5, -3.907e-5
0.145, -2.582e-5, -3.972e-5
0.144, -2.565e-5, -4.036e-5
0.143, -2.551e-5, -4.100e-5
0.142, -2.535e-5, -4.163e-5
0.141, -2.519e-5, -4.226e-5
0.140, -2.505e-5, -4.289e-5
0.139, -2.488e-5, -4.351e-5
0.138, -2.475e-5, -4.413e-5
0.137, -2.461e-5, -4.474e-5
0.136, -2.445e-5, -4.536e-5
0.135, -2.433e-5, -4.596e-5
0.134, -2.417e-5, -4.657e-5
0.133, -2.404e-5, -4.717e-5
0.132, -2.390e-5, -4.777e-5
0.131, -2.377e-5, -4.836e-5
0.130, -2.364e-5, -4.895e-5
0.129, -2.350e-5, -4.954e-5
0.128, -2.339e-5, -5.012e-5
0.127, -2.323e-5, -5.070e-5
0.126, -2.311e-5, -5.128e-5
0.125, -2.296e-5, -5.186e-5
0.124, -2.286e-5, -5.243e-5
0.123, -2.272e-5, -5.300e-5
0.122, -2.262e-5, -5.356e-5
0.121, -2.248e-5, -5.412e-5
0.120, -2.239e-5, -5.468e-5
0.119, -2.223e-5, -5.524e-5
0.118, -2.208e-5, -5.579e-5
0.117, -2.195e-5, -5.634e-5
0.116, -2.186e-5, -5.689e-5
0.115, -2.173e-5, -5.743e-5
0.114, -2.164e-5, -5.797e-5
0.113, -2.151e-5, -5.851e-5
0.112, -2.143e-5, -5.904e-5
0.111, -2.132e-5, -5.958e-5
0.110, -2.120e-5, -6.011e-5
0.109, -2.110e-5, -6.063e-5
0.108, -2.099e-5, -6.116e-5
0.107, -2.090e-5, -6.168e-5
0.106, -2.079e-5, -6.220e-5
0.105, -2.070e-5, -6.272e-5
0.104, -2.061e-5, -6.323e-5
0.103, -2.050e-5, -6.375e-5
0.102, -2.044e-5, -6.426e-5
0.101, -2.033e-5, -6.477e-5
0.100, -2.023e-5, -6.527e-5
0.099, -2.014e-5, -6.578e-5
0.098, -2.003e-5, -6.628e-5
0.097, -1.996e-5, -6.678e-5
0.096, -1.987e-5, -6.727e-5
0.095, -1.977e-5, -6.777e-5
0.094, -1.970e-5, -6.826e-5
0.093, -1.961e-5, -6.875e-5
0.092, -1.952e-5, -6.924e-5
0.091, -1.947e-5, -6.972e-5
0.090, -1.939e-5, -7.021e-5
0.089, -1.928e-5, -7.069e-5
0.088, -1.920e-5, -7.117e-5
0.087, -1.911e-5, -7.165e-5
0.086, -1.903e-5, -7.212e-5
0.085, -1.897e-5, -7.260e-5
0.084, -1.888e-5, -7.307e-5
0.083, -1.880e-5, -7.354e-5
0.082, -1.874e-5, -7.401e-5
0.081, -1.867e-5, -7.448e-5
0.080, -1.858e-5, -7.494e-5
0.079, -1.852e-5, -7.540e-5
0.078, -1.847e-5, -7.586e-5
0.077, -1.838e-5, -7.632e-5
0.076, -1.830e-5, -7.678e-5
0.075, -1.824e-5, -7.724e-5
0.074, -1.816e-5, -7.769e-5
0.073, -1.808e-5, -7.814e-5
0.072, -1.803e-5, -7.859e-5
0.071, -1.797e-5, -7.904e-5
0.070, -1.789e-5, -7.949e-5
0.069, -1.782e-5, -7.994e-5
0.068, -1.777e-5, -8.038e-5
0.067, -1.771e-5, -8.082e-5
0.066, -1.763e-5, -8.126e-5
0.065, -1.757e-5, -8.170e-5
0.064, -1.753e-5, -8.214e-5
0.063, -1.748e-5, -8.258e-5
0.062, -1.740e-5, -8.301e-5
0.061, -1.733e-5, -8.345e-5
0.060, -1.728e-5, -8.388e-5
0.059, -1.722e-5, -8.431e-5
0.058, -1.715e-5, -8.474e-5
0.057, -1.708e-5, -8.517e-5
0.056, -1.704e-5, -8.559e-5
0.055, -1.699e-5, -8.602e-5
0.054, -1.693e-5, -8.644e-5
0.053, -1.686e-5, -8.686e-5
0.052, -1.681e-5, -8.728e-5
0.051, -1.678e-5, -8.770e-5
0.050, -1.672e-5, -8.812e-5
0.049, -1.665e-5, -8.853e-5
0.048, -1.660e-5, -8.895e-5
0.047, -1.656e-5, -8.936e-5
0.046, -1.652e-5, -8.978e-5
0.045, -1.647e-5, -9.019e-5
0.044, -1.640e-5, -9.060e-5
0.043, -1.634e-5, -9.101e-5
0.042, -1.630e-5, -9.141e-5
0.041, -1.625e-5, -9.182e-5
0.040, -1.620e-5, -9.223e-5
0.039, -1.614e-5, -9.263e-5
0.038, -1.610e-5, -9.303e-5
0.037, -1.606e-5, -9.343e-5
0.036, -1.602e-5, -9.383e-5
0.035, -1.596e-5, -9.423e-5
0.034, -1.591e-5, -9.463e-5
0.033, -1.586e-5, -9.503e-5
0.032, -1.583e-5, -9.542e-5
0.031, -1.579e-5, -9.582e-5
0.030, -1.574e-5, -9.621e-5
0.029, -1.569e-5, -9.660e-5
0.028, -1.564e-5, -9.699e-5
0.027, -1.560e-5, -9.738e-5
0.026, -1.558e-5, -9.777e-5
0.025, -1.554e-5, -9.816e-5
0.024, -1.549e-5, -9.855e-5
0.023, -1.543e-5, -9.894e-5
0.022, -1.538e-5, -9.932e-5
0.021, -1.534e-5, -9.970e-5
0.020, -1.530e-5, -1.001e-4
0.019, -1.525e-5, -1.005e-4
0.018, -1.520e-5, -1.008e-4
0.017, -1.515e-5, -1.012e-4
0.016, -1.512e-5, -1.016e-4
0.015, -1.509e-5, -1.020e-4
0.014, -1.505e-5, -1.024e-4
0.013, -1.501e-5, -1.027e-4
0.012, -1.497e-5, -1.031e-4
0.011, -1.492e-5, -1.035e-4
0.010, -1.488e-5, -1.039e-4
0.009, -1.486e-5, -1.042e-4
0.008, -1.483e-5, -1.046e-4
0.007, -1.479e-5, -1.050e-4
0.006, -1.476e-5, -1.053e-4
0.005, -1.471e-5, -1.057e-4
0.004, -1.467e-5, -1.061e-4
0.003, -1.464e-5, -1.064e-4
0.002, -1.461e-5, -1.068e-4
0.001, -1.459e-5, -1.072e-4
0.000, -1.453e-5, -1.075e-4

Segment 4:
0.001, -1.439e-5, -1.079e-4
0.002, -1.433e-5, -1.082e-4
0.003, -1.427e-5, -1.086e-4
0.004, -1.421e-5, -1.090e-4
0.005, -1.416e-5, -1.093e-4
0.006, -1.413e-5, -1.097e-4
0.007, -1.410e-5, -1.100e-4
0.008, -1.406e-5, -1.104e-4
0.009, -1.401e-5, -1.107e-4
0.010, -1.396e-5, -1.111e-4
0.011, -1.391e-5, -1.114e-4
0.012, -1.388e-5, -1.118e-4
0.013, -1.385e-5, -1.121e-4
0.014, -1.381e-5, -1.125e-4
0.015, -1.376e-5, -1.128e-4
0.016, -1.372e-5, -1.131e-4
0.017, -1.368e-5, -1.135e-4
0.018, -1.365e-5, -1.138e-4
0.019, -1.362e-5, -1.142e-4
0.020, -1.359e-5, -1.145e-4
0.021, -1.355e-5, -1.148e-4
0.022, -1.351e-5, -1.152e-4
0.023, -1.347e-5, -1.155e-4
0.024, -1.343e-5, -1.159e-4
0.025, -1.339e-5, -1.162e-4
0.026, -1.336e-5, -1.165e-4
0.027, -1.333e-5, -1.169e-4
0.028, -1.329e-5, -1.172e-4
0.029, -1.325e-5, -1.175e-4
0.030, -1.322e-5, -1.178e-4
0.031, -1.318e-5, -1.182e-4
0.032, -1.316e-5, -1.185e-4
0.033, -1.313e-5, -1.188e-4
0.034, -1.311e-5, -1.192e-4
0.035, -1.307e-5, -1.195e-4
0.036, -1.304e-5, -1.198e-4
0.037, -1.300e-5, -1.201e-4
0.038, -1.296e-5, -1.205e-4
0.039, -1.293e-5, -1.208e-4
0.040, -1.290e-5, -1.211e-4
0.041, -1.288e-5, -1.214e-4
0.042, -1.285e-5, -1.218e-4
0.043, -1.282e-5, -1.221e-4
0.044, -1.278e-5, -1.224e-4
0.045, -1.274e-5, -1.227e-4
0.046, -1.271e-5, -1.230e-4
0.047, -1.268e-5, -1.233e-4
0.048, -1.266e-5, -1.237e-4
0.049, -1.264e-5, -1.240e-4
0.050, -1.262e-5, -1.243e-4
0.051, -1.259e-5, -1.246e-4
0.052, -1.256e-5, -1.249e-4
0.053, -1.252e-5, -1.252e-4
0.054, -1.248e-5, -1.255e-4
0.055, -1.245e-5, -1.259e-4
0.056, -1.242e-5, -1.262e-4
0.057, -1.239e-5, -1.265e-4
0.058, -1.237e-5, -1.268e-4
0.059, -1.234e-5, -1.271e-4
0.060, -1.230e-5, -1.274e-4
0.061, -1.227e-5, -1.277e-4
0.062, -1.223e-5, -1.280e-4
0.063, -1.221e-5, -1.283e-4
0.064, -1.218e-5, -1.286e-4
0.065, -1.216e-5, -1.289e-4
0.066, -1.214e-5, -1.292e-4
0.067, -1.212e-5, -1.295e-4
0.068, -1.209e-5, -1.298e-4
0.069, -1.205e-5, -1.301e-4
0.070, -1.202e-5, -1.304e-4
0.071, -1.198e-5, -1.307e-4
0.072, -1.196e-5, -1.310e-4
0.073, -1.193e-5, -1.313e-4
0.074, -1.191e-5, -1.316e-4
0.075, -1.188e-5, -1.319e-4
0.076, -1.186e-5, -1.322e-4
0.077, -1.182e-5, -1.325e-4
0.078, -1.179e-5, -1.328e-4
0.079, -1.175e-5, -1.331e-4
0.080, -1.172e-5, -1.334e-4
0.081, -1.170e-5, -1.337e-4
0.082, -1.168e-5, -1.340e-4
0.083, -1.167e-5, -1.343e-4
0.084, -1.165e-5, -1.346e-4
0.085, -1.162e-5, -1.349e-4
0.086, -1.158e-5, -1.352e-4
0.087, -1.154e-5, -1.354e-4
0.088, -1.150e-5, -1.357e-4
0.089, -1.147e-5, -1.360e-4
0.090, -1.144e-5, -1.363e-4
0.091, -1.141e-5, -1.366e-4
0.092, -1.139e-5, -1.369e-4
0.093, -1.135e-5, -1.372e-4
0.094, -1.132e-5, -1.374e-4
0.095, -1.128e-5, -1.377e-4
0.096, -1.125e-5, -1.380e-4
0.097, -1.122e-5, -1.383e-4
0.098, -1.120e-5, -1.386e-4
0.099, -1.118e-5, -1.388e-4
0.100, -1.115e-5, -1.391e-4
0.101, -1.112e-5, -1.394e-4
0.102, -1.108e-5, -1.397e-4
0.103, -1.104e-5, -1.400e-4
0.104, -1.100e-5, -1.402e-4
0.105, -1.097e-5, -1.405e-4
0.106, -1.095e-5, -1.408e-4
0.107, -1.092e-5, -1.410e-4
0.108, -1.090e-5, -1.413e-4
0.109, -1.086e-5, -1.416e-4
0.110, -1.082e-5, -1.419e-4
0.111, -1.078e-5, -1.421e-4
0.112, -1.074e-5, -1.424e-4
0.113, -1.072e-5, -1.427e-4
0.114, -1.069e-5, -1.429e-4
0.115, -1.066e-5, -1.432e-4
0.116, -1.062e-5, -1.435e-4
0.117, -1.057e-5, -1.437e-4
0.118, -1.053e-5, -1.440e-4
0.119, -1.049e-5, -1.443e-4
0.120, -1.046e-5, -1.445e-4
0.121, -1.042e-5, -1.448e-4
0.122, -1.037e-5, -1.450e-4
0.123, -1.033e-5, -1.453e-4
0.124, -1.028e-5, -1.456e-4
0.125, -1.024e-5, -1.458e-4
0.126, -1.021e-5, -1.461e-4
0.127, -1.018e-5, -1.463e-4
0.128, -1.013e-5, -1.466e-4
0.129, -1.007e-5, -1.468e-4
0.130, -1.002e-5, -1.471e-4
0.131, -9.979e-6, -1.473e-4
0.132, -9.941e-6, -1.476e-4
0.133, -9.890e-6, -1.478e-4
0.134, -9.830e-6, -1.481e-4
0.135, -9.774e-6, -1.483e-4
0.136, -9.735e-6, -1.486e-4
0.137, -9.699e-6, -1.488e-4
0.138, -9.642e-6, -1.490e-4
0.139, -9.570e-6, -1.493e-4
0.140, -9.508e-6, -1.495e-4
0.141, -9.455e-6, -1.498e-4
0.142, -9.393e-6, -1.500e-4
0.143, -9.318e-6, -1.502e-4
0.144, -9.259e-6, -1.505e-4
0.145, -9.213e-6, -1.507e-4
0.146, -9.150e-6, -1.509e-4
0.147, -9.067e-6, -1.511e-4
0.148, -9.002e-6, -1.514e-4
0.149, -8.945e-6, -1.516e-4
0.150, -8.863e-6, -1.518e-4
0.151, -8.783e-6, -1.520e-4
0.152, -8.732e-6, -1.522e-4
0.153, -8.651e-6, -1.525e-4
0.154, -8.552e-6, -1.527e-4
0.155, -8.478e-6, -1.529e-4
0.156, -8.386e-6, -1.531e-4
0.157, -8.291e-6, -1.533e-4
0.158, -8.228e-6, -1.535e-4
0.159, -8.130e-6, -1.537e-4
0.160, -8.027e-6, -1.539e-4
0.161, -7.942e-6, -1.541e-4
0.162, -7.830e-6, -1.543e-4
0.163, -7.754e-6, -1.545e-4
0.164, -7.636e-6, -1.547e-4
0.165, -7.520e-6, -1.549e-4
0.166, -7.402e-6, -1.551e-4
0.167, -7.287e-6, -1.552e-4
0.168, -7.177e-6, -1.554e-4
0.169, -7.051e-6, -1.556e-4
0.170, -6.933e-6, -1.558e-4
0.171, -6.807e-6, -1.559e-4
0.172, -6.685e-6, -1.561e-4
0.173, -6.493e-6, -1.563e-4
0.174, -6.331e-6, -1.564e-4
0.175, -6.201e-6, -1.566e-4
0.176, -6.055e-6, -1.567e-4
0.177, -5.892e-6, -1.569e-4
0.178, -5.773e-6, -1.570e-4
0.179, -5.593e-6, -1.572e-4
0.180, -5.420e-6, -1.573e-4
0.181, -5.268e-6, -1.574e-4
0.182, -5.090e-6, -1.576e-4
0.183, -4.904e-6, -1.577e-4
0.184, -4.765e-6, -1.578e-4
0.185, -4.564e-6, -1.579e-4
0.186, -4.359e-6, -1.580e-4
0.187, -4.156e-6, -1.581e-4
0.188, -3.961e-6, -1.582e-4
0.189, -3.798e-6, -1.583e-4
0.190, -3.555e-6, -1.584e-4
0.191, -3.335e-6, -1.585e-4
0.192, -3.111e-6, -1.586e-4
0.193, -2.888e-6, -1.587e-4
0.194, -2.652e-6, -1.587e-4
0.195, -2.413e-6, -1.588e-4
0.196, -2.169e-6, -1.588e-4
0.197, -1.920e-6, -1.589e-4
0.198, -1.671e-6, -1.589e-4
0.199, -1.395e-6, -1.590e-4
0.200, -1.132e-6, -1.590e-4
0.201, -8.730e-7, -1.590e-4
0.202, -5.668e-7, -1.590e-4
0.203, -2.822e-7, -1.590e-4
0.204, 5.763e-9, -1.590e-4
0.205, 3.489e-7, -1.590e-4
0.206, 6.562e-7, -1.590e-4
0.207, 9.932e-7, -1.590e-4
0.208, 1.334e-6, -1.589e-4
0.209, 1.673e-6, -1.589e-4
0.210, 2.011e-6, -1.589e-4
0.211, 2.344e-6, -1.588e-4
0.212, 2.702e-6, -1.587e-4
0.213, 3.050e-6, -1.587e-4
0.214, 3.415e-6, -1.586e-4
0.215, 3.767e-6, -1.585e-4
0.216, 4.164e-6, -1.584e-4
0.217, 4.529e-6, -1.583e-4
0.218, 4.922e-6, -1.581e-4
0.219, 5.320e-6, -1.580e-4
0.220, 5.693e-6, -1.579e-4
0.221, 6.126e-6, -1.577e-4
0.222, 6.527e-6, -1.575e-4
0.223, 6.928e-6, -1.574e-4
0.224, 7.356e-6, -1.572e-4
0.225, 7.792e-6, -1.570e-4
0.226, 8.228e-6, -1.568e-4
0.227, 8.672e-6, -1.566e-4
0.228, 9.172e-6, -1.563e-4
0.229, 9.614e-6, -1.561e-4
0.230, 1.008e-5, -1.558e-4
0.231, 1.053e-5, -1.556e-4
0.232, 1.100e-5, -1.553e-4
0.233, 1.147e-5, -1.550e-4
0.234, 1.194e-5, -1.547e-4
0.235, 1.243e-5, -1.544e-4
0.236, 1.291e-5, -1.541e-4
0.237, 1.339e-5, -1.538e-4
0.238, 1.389e-5, -1.534e-4
0.239, 1.437e-5, -1.530e-4
0.240, 1.488e-5, -1.527e-4
0.241, 1.536e-5, -1.523e-4
0.242, 1.587e-5, -1.519e-4
0.243, 1.637e-5, -1.515e-4
0.244, 1.689e-5, -1.511e-4
0.245, 1.739e-5, -1.506e-4
0.246, 1.791e-5, -1.502e-4
0.247, 1.841e-5, -1.497e-4
0.248, 1.891e-5, -1.492e-4
0.249, 1.941e-5, -1.488e-4
0.250, 1.993e-5, -1.483e-4
0.251, 2.043e-5, -1.478e-4
0.252, 2.092e-5, -1.472e-4
0.253, 2.143e-5, -1.467e-4
0.254, 2.193e-5, -1.461e-4
0.255, 2.243e-5, -1.456e-4
0.256, 2.293e-5, -1.450e-4
0.257, 2.342e-5, -1.444e-4
0.258, 2.393e-5, -1.438e-4
0.259, 2.443e-5, -1.432e-4
0.260, 2.497e-5, -1.426e-4
0.261, 2.546e-5, -1.420e-4
0.262, 2.591e-5, -1.413e-4
0.263, 2.639e-5, -1.406e-4
0.264, 2.685e-5, -1.400e-4
0.265, 2.730e-5, -1.393e-4
0.266, 2.776e-5, -1.386e-4
0.267, 2.821e-5, -1.379e-4
0.268, 2.864e-5, -1.372e-4
0.269, 2.907e-5, -1.365e-4
0.270, 2.951e-5, -1.357e-4
0.271, 2.991e-5, -1.350e-4
0.272, 3.031e-5, -1.342e-4
0.273, 3.070e-5, -1.334e-4
0.274, 3.108e-5, -1.327e-4
0.275, 3.150e-5, -1.319e-4
0.276, 3.186e-5, -1.311e-4
0.277, 3.220e-5, -1.303e-4
0.278, 3.254e-5, -1.295e-4
0.279, 3.287e-5, -1.286e-4
0.280, 3.321e-5, -1.278e-4
0.281, 3.351e-5, -1.270e-4
0.282, 3.380e-5, -1.261e-4
0.283, 3.410e-5, -1.253e-4
0.284, 3.438e-5, -1.244e-4
0.285, 3.464e-5, -1.235e-4
0.286, 3.491e-5, -1.227e-4
0.287, 3.516e-5, -1.218e-4
0.288, 3.541e-5, -1.209e-4
0.289, 3.561e-5, -1.200e-4
0.290, 3.580e-5, -1.191e-4
0.291, 3.598e-5, -1.182e-4
0.292, 3.618e-5, -1.173e-4
0.293, 3.637e-5, -1.164e-4
0.294, 3.649e-5, -1.155e-4
0.295, 3.665e-5, -1.146e-4
0.296, 3.677e-5, -1.137e-4
0.297, 3.689e-5, -1.127e-4
0.298, 3.698e-5, -1.118e-4
0.299, 3.708e-5, -1.109e-4
0.300, 3.715e-5, -1.100e-4
0.301, 3.723e-5, -1.090e-4
0.302, 3.730e-5, -1.081e-4
0.303, 3.734e-5, -1.072e-4
0.304, 3.736e-5, -1.062e-4
0.305, 3.737e-5, -1.053e-4
0.306, 3.736e-5, -1.044e-4
0.307, 3.736e-5, -1.034e-4
0.308, 3.736e-5, -1.025e-4
0.309, 3.733e-5, -1.016e-4
0.310, 3.728e-5, -1.006e-4
0.311, 3.723e-5, -9.970e-5
0.312, 3.717e-5, -9.877e-5
0.313, 3.710e-5, -9.784e-5
0.314, 3.701e-5, -9.692e-5
0.315, 3.692e-5, -9.600e-5
0.316, 3.683e-5, -9.507e-5
0.317, 3.674e-5, -9.416e-5
0.318, 3.661e-5, -9.324e-5
0.319, 3.650e-5, -9.233e-5
0.320, 3.637e-5, -9.142e-5
0.321, 3.626e-5, -9.051e-5
0.322, 3.611e-5, -8.961e-5
0.323, 3.596e-5, -8.871e-5
0.324, 3.582e-5, -8.782e-5
0.325, 3.566e-5, -8.692e-5
0.326, 3.551e-5, -8.604e-5
0.327, 3.535e-5, -8.515e-5
0.328, 3.516e-5, -8.427e-5
0.329, 3.499e-5, -8.340e-5
0.330, 3.482e-5, -8.253e-5
0.331, 3.463e-5, -8.166e-5
0.332, 3.445e-5, -8.080e-5
0.333, 3.428e-5, -7.994e-5
0.334, 3.408e-5, -7.909e-5
0.335, 3.389e-5, -7.825e-5
0.336, 3.369e-5, -7.740e-5
0.337, 3.352e-5, -7.656e-5
0.338, 3.332e-5, -7.573e-5
0.339, 3.311e-5, -7.490e-5
0.340, 3.291e-5, -7.408e-5
0.341, 3.270e-5, -7.326e-5
0.342, 3.251e-5, -7.245e-5
0.343, 3.234e-5, -7.164e-5
0.344, 3.214e-5, -7.084e-5
0.345, 3.194e-5, -7.004e-5
0.346, 3.175e-5, -6.925e-5
0.347, 3.156e-5, -6.846e-5
0.348, 3.135e-5, -6.767e-5
0.349, 3.112e-5, -6.690e-5
0.350, 3.094e-5, -6.612e-5
0.351, 3.074e-5, -6.535e-5
0.352, 3.054e-5, -6.459e-5
0.353, 3.035e-5, -6.383e-5
0.354, 3.015e-5, -6.308e-5
0.355, 2.996e-5, -6.233e-5
0.356, 2.977e-5, -6.158e-5
0.357, 2.959e-5, -6.084e-5
0.358, 2.940e-5, -6.011e-5
0.359, 2.920e-5, -5.938e-5
0.360, 2.901e-5, -5.865e-5
0.361, 2.883e-5, -5.793e-5
0.362, 2.865e-5, -5.722e-5
0.363, 2.848e-5, -5.651e-5
0.364, 2.828e-5, -5.580e-5
0.365, 2.811e-5, -5.510e-5
0.366, 2.795e-5, -5.440e-5
0.367, 2.776e-5, -5.370e-5
0.368, 2.759e-5, -5.301e-5
0.369, 2.741e-5, -5.233e-5
0.370, 2.724e-5, -5.165e-5
0.371, 2.708e-5, -5.097e-5
0.372, 2.692e-5, -5.030e-5
0.373, 2.675e-5, -4.963e-5
0.374, 2.658e-5, -4.896e-5
0.375, 2.643e-5, -4.830e-5
0.376, 2.627e-5, -4.765e-5
0.377, 2.611e-5, -4.699e-5
0.378, 2.597e-5, -4.634e-5
0.379, 2.581e-5, -4.570e-5
0.380, 2.566e-5, -4.506e-5
0.381, 2.551e-5, -4.442e-5
0.382, 2.535e-5, -4.379e-5
0.383, 2.521e-5, -4.316e-5
0.384, 2.507e-5, -4.253e-5
0.385, 2.492e-5, -4.191e-5
0.386, 2.478e-5, -4.129e-5
0.387, 2.463e-5, -4.067e-5
0.388, 2.448e-5, -4.006e-5
0.389, 2.431e-5, -3.945e-5
0.390, 2.417e-5, -3.885e-5
0.391, 2.406e-5, -3.824e-5
0.392, 2.392e-5, -3.765e-5
0.393, 2.379e-5, -3.705e-5
0.394, 2.367e-5, -3.646e-5
0.395, 2.354e-5, -3.587e-5
0.396, 2.340e-5, -3.529e-5
0.397, 2.327e-5, -3.470e-5
0.398, 2.316e-5, -3.413e-5
0.399, 2.304e-5, -3.355e-5
0.400, 2.292e-5, -3.298e-5
0.401, 2.281e-5, -3.241e-5
0.402, 2.269e-5, -3.184e-5
0.403, 2.258e-5, -3.127e-5
0.404, 2.247e-5, -3.071e-5
0.405, 2.235e-5, -3.015e-5
0.406, 2.225e-5, -2.960e-5
0.407, 2.214e-5, -2.904e-5
0.408, 2.204e-5, -2.849e-5
0.409, 2.193e-5, -2.794e-5
0.410, 2.183e-5, -2.740e-5
0.411, 2.173e-5, -2.686e-5
0.412, 2.164e-5, -2.631e-5
0.413, 2.152e-5, -2.578e-5
0.414, 2.142e-5, -2.524e-5
0.415, 2.132e-5, -2.471e-5
0.416, 2.123e-5, -2.418e-5
0.417, 2.113e-5, -2.365e-5
0.418, 2.104e-5, -2.312e-5
0.419, 2.094e-5, -2.260e-5
0.420, 2.086e-5, -2.208e-5
0.421, 2.076e-5, -2.156e-5
0.422, 2.068e-5, -2.104e-5
0.423, 2.059e-5, -2.053e-5
0.424, 2.049e-5, -2.002e-5
0.425, 2.041e-5, -1.951e-5
0.426, 2.032e-5, -1.900e-5
0.427, 2.024e-5, -1.849e-5
0.428, 2.016e-5, -1.799e-5
0.429, 2.007e-5, -1.749e-5
0.430, 1.998e-5, -1.699e-5
0.431, 1.991e-5, -1.649e-5
0.432, 1.983e-5, -1.599e-5
0.433, 1.976e-5, -1.550e-5
0.434, 1.968e-5, -1.501e-5
0.435, 1.959e-5, -1.452e-5
0.436, 1.951e-5, -1.403e-5
0.437, 1.943e-5, -1.354e-5
0.438, 1.935e-5, -1.306e-5
0.439, 1.928e-5, -1.258e-5
0.440, 1.921e-5, -1.210e-5
0.441, 1.914e-5, -1.162e-5
0.442, 1.907e-5, -1.114e-5
0.443, 1.899e-5, -1.067e-5
0.444, 1.892e-5, -1.019e-5
0.445, 1.885e-5, -9.723e-6
0.446, 1.879e-5, -9.253e-6
0.447, 1.872e-5, -8.785e-6
0.448, 1.865e-5, -8.319e-6
0.449, 1.858e-5, -7.854e-6
0.450, 1.852e-5, -7.391e-6
0.451, 1.845e-5, -6.930e-6
0.452, 1.839e-5, -6.470e-6
0.453, 1.832e-5, -6.012e-6
0.454, 1.826e-5, -5.556e-6
0.455, 1.820e-5, -5.101e-6
0.456, 1.814e-5, -4.647e-6
0.457, 1.807e-5, -4.195e-6
0.458, 1.801e-5, -3.745e-6
0.459, 1.796e-5, -3.296e-6
0.460, 1.790e-5, -2.849e-6
0.461, 1.785e-5, -2.402e-6
0.462, 1.780e-5, -1.957e-6
0.463, 1.774e-5, -1.514e-6
0.464, 1.767e-5, -1.072e-6
0.465, 1.761e-5, -6.320e-7
0.466, 1.755e-5, -1.933e-7
0.467, 1.749e-5, 2.440e-7
0.468, 1.744e-5, 6.799e-7
0.469, 1.738e-5, 1.114e-6
0.470, 1.733e-5, 1.548e-6
0.471, 1.728e-5, 1.980e-6
0.472, 1.722e-5, 2.410e-6
0.473, 1.717e-5, 2.839e-6
0.474, 1.711e-5, 3.267e-6
0.475, 1.706e-5, 3.694e-6
0.476, 1.701e-5, 4.119e-6
0.477, 1.696e-5, 4.543e-6
0.478, 1.691e-5, 4.966e-6
0.479, 1.686e-5, 5.388e-6
0.480, 1.682e-5, 5.808e-6
0.481, 1.677e-5, 6.227e-6
0.482, 1.672e-5, 6.645e-6
0.483, 1.667e-5, 7.062e-6
0.484, 1.661e-5, 7.477e-6
0.485, 1.656e-5, 7.891e-6
0.486, 1.651e-5, 8.304e-6
0.487, 1.646e-5, 8.715e-6
0.488, 1.642e-5, 9.126e-6
0.489, 1.638e-5, 9.535e-6
0.490, 1.633e-5, 9.944e-6
0.491, 1.630e-5, 1.035e-5
0.492, 1.625e-5, 1.076e-5
0.493, 1.621e-5, 1.116e-5
0.494, 1.616e-5, 1.157e-5
0.495, 1.611e-5, 1.197e-5
0.496, 1.607e-5, 1.237e-5
0.497, 1.602e-5, 1.277e-5
0.498, 1.598e-5, 1.317e-5
0.499, 1.594e-5, 1.357e-5
0.500, 1.588e-5, 1.397e-5
