Mar. 30, 2023   16:59:32
Cyclic Voltammetry
File: 10mmol120mvs
Data Source:  Experiment
Instrument Model:  CHI600B
Header: 
Note: 

Init E (V) = 0.268
High E (V) = 0.5
Low E (V) = 0
Init P/N = N
Scan Rate (V/s) = 0.12
Segment = 4
Sample Interval (V) = 0.001
Quiet Time (sec) = 2
Sensitivity (A/V) = 5e-5

Segment 1:

Segment 2:
Ep = 0.316V
ip = 6.872e-5A
Ah = 4.510e-5C

Segment 3:
Ep = 0.201V
ip = -6.528e-5A
Ah = -4.344e-5C

Segment 4:
Ep = 0.314V
ip = 6.777e-5A
Ah = 4.335e-5C

Potential/V, Current/A, Charge/C

Segment 1:
0.267, 3.238e-7, 2.699e-9
0.266, -1.591e-6, -1.056e-8
0.265, -3.296e-6, -3.803e-8
0.264, -4.925e-6, -7.907e-8
0.263, -6.451e-6, -1.328e-7
0.262, -7.984e-6, -1.994e-7
0.261, -9.364e-6, -2.774e-7
0.260, -1.064e-5, -3.661e-7
0.259, -1.203e-5, -4.663e-7
0.258, -1.313e-5, -5.757e-7
0.257, -1.450e-5, -6.966e-7
0.256, -1.562e-5, -8.267e-7
0.255, -1.682e-5, -9.669e-7
0.254, -1.787e-5, -1.116e-6
0.253, -1.896e-5, -1.274e-6
0.252, -2.004e-5, -1.441e-6
0.251, -2.105e-5, -1.616e-6
0.250, -2.210e-5, -1.800e-6
0.249, -2.316e-5, -1.993e-6
0.248, -2.405e-5, -2.194e-6
0.247, -2.510e-5, -2.403e-6
0.246, -2.591e-5, -2.619e-6
0.245, -2.693e-5, -2.843e-6
0.244, -2.768e-5, -3.074e-6
0.243, -2.865e-5, -3.313e-6
0.242, -2.945e-5, -3.558e-6
0.241, -3.025e-5, -3.810e-6
0.240, -3.105e-5, -4.069e-6
0.239, -3.182e-5, -4.334e-6
0.238, -3.260e-5, -4.606e-6
0.237, -3.335e-5, -4.884e-6
0.236, -3.405e-5, -5.168e-6
0.235, -3.484e-5, -5.458e-6
0.234, -3.539e-5, -5.753e-6
0.233, -3.621e-5, -6.054e-6
0.232, -3.670e-5, -6.360e-6
0.231, -3.745e-5, -6.672e-6
0.230, -3.807e-5, -6.990e-6
0.229, -3.866e-5, -7.312e-6
0.228, -3.924e-5, -7.639e-6
0.227, -3.977e-5, -7.970e-6
0.226, -4.031e-5, -8.306e-6
0.225, -4.086e-5, -8.647e-6
0.224, -4.130e-5, -8.991e-6
0.223, -4.188e-5, -9.340e-6
0.222, -4.217e-5, -9.691e-6
0.221, -4.276e-5, -1.005e-5
0.220, -4.306e-5, -1.041e-5
0.219, -4.355e-5, -1.077e-5
0.218, -4.387e-5, -1.113e-5
0.217, -4.423e-5, -1.150e-5
0.216, -4.455e-5, -1.187e-5
0.215, -4.489e-5, -1.225e-5
0.214, -4.517e-5, -1.263e-5
0.213, -4.549e-5, -1.300e-5
0.212, -4.568e-5, -1.338e-5
0.211, -4.605e-5, -1.377e-5
0.210, -4.613e-5, -1.415e-5
0.209, -4.647e-5, -1.454e-5
0.208, -4.652e-5, -1.493e-5
0.207, -4.681e-5, -1.532e-5
0.206, -4.690e-5, -1.571e-5
0.205, -4.704e-5, -1.610e-5
0.204, -4.713e-5, -1.649e-5
0.203, -4.722e-5, -1.689e-5
0.202, -4.731e-5, -1.728e-5
0.201, -4.737e-5, -1.768e-5
0.200, -4.738e-5, -1.807e-5
0.199, -4.753e-5, -1.847e-5
0.198, -4.743e-5, -1.886e-5
0.197, -4.757e-5, -1.926e-5
0.196, -4.745e-5, -1.965e-5
0.195, -4.753e-5, -2.005e-5
0.194, -4.742e-5, -2.045e-5
0.193, -4.740e-5, -2.084e-5
0.192, -4.734e-5, -2.123e-5
0.191, -4.728e-5, -2.163e-5
0.190, -4.718e-5, -2.202e-5
0.189, -4.711e-5, -2.241e-5
0.188, -4.697e-5, -2.281e-5
0.187, -4.693e-5, -2.320e-5
0.186, -4.670e-5, -2.359e-5
0.185, -4.666e-5, -2.398e-5
0.184, -4.641e-5, -2.436e-5
0.183, -4.636e-5, -2.475e-5
0.182, -4.613e-5, -2.513e-5
0.181, -4.603e-5, -2.552e-5
0.180, -4.583e-5, -2.590e-5
0.179, -4.565e-5, -2.628e-5
0.178, -4.542e-5, -2.666e-5
0.177, -4.529e-5, -2.703e-5
0.176, -4.502e-5, -2.741e-5
0.175, -4.491e-5, -2.778e-5
0.174, -4.460e-5, -2.816e-5
0.173, -4.450e-5, -2.853e-5
0.172, -4.420e-5, -2.889e-5
0.171, -4.409e-5, -2.926e-5
0.170, -4.381e-5, -2.963e-5
0.169, -4.362e-5, -2.999e-5
0.168, -4.337e-5, -3.035e-5
0.167, -4.316e-5, -3.071e-5
0.166, -4.292e-5, -3.107e-5
0.165, -4.271e-5, -3.143e-5
0.164, -4.243e-5, -3.178e-5
0.163, -4.227e-5, -3.213e-5
0.162, -4.196e-5, -3.248e-5
0.161, -4.182e-5, -3.283e-5
0.160, -4.149e-5, -3.318e-5
0.159, -4.135e-5, -3.352e-5
0.158, -4.105e-5, -3.386e-5
0.157, -4.087e-5, -3.420e-5
0.156, -4.060e-5, -3.454e-5
0.155, -4.040e-5, -3.488e-5
0.154, -4.014e-5, -3.521e-5
0.153, -3.996e-5, -3.554e-5
0.152, -3.969e-5, -3.588e-5
0.151, -3.950e-5, -3.620e-5
0.150, -3.922e-5, -3.653e-5
0.149, -3.906e-5, -3.686e-5
0.148, -3.875e-5, -3.718e-5
0.147, -3.860e-5, -3.750e-5
0.146, -3.832e-5, -3.782e-5
0.145, -3.815e-5, -3.814e-5
0.144, -3.788e-5, -3.845e-5
0.143, -3.766e-5, -3.877e-5
0.142, -3.739e-5, -3.908e-5
0.141, -3.724e-5, -3.939e-5
0.140, -3.699e-5, -3.970e-5
0.139, -3.683e-5, -4.001e-5
0.138, -3.655e-5, -4.031e-5
0.137, -3.641e-5, -4.061e-5
0.136, -3.613e-5, -4.091e-5
0.135, -3.603e-5, -4.121e-5
0.134, -3.574e-5, -4.151e-5
0.133, -3.560e-5, -4.181e-5
0.132, -3.537e-5, -4.210e-5
0.131, -3.521e-5, -4.240e-5
0.130, -3.502e-5, -4.269e-5
0.129, -3.485e-5, -4.298e-5
0.128, -3.461e-5, -4.327e-5
0.127, -3.447e-5, -4.356e-5
0.126, -3.422e-5, -4.384e-5
0.125, -3.413e-5, -4.412e-5
0.124, -3.387e-5, -4.441e-5
0.123, -3.375e-5, -4.469e-5
0.122, -3.354e-5, -4.497e-5
0.121, -3.341e-5, -4.525e-5
0.120, -3.320e-5, -4.552e-5
0.119, -3.306e-5, -4.580e-5
0.118, -3.287e-5, -4.607e-5
0.117, -3.272e-5, -4.635e-5
0.116, -3.253e-5, -4.662e-5
0.115, -3.242e-5, -4.689e-5
0.114, -3.221e-5, -4.715e-5
0.113, -3.212e-5, -4.742e-5
0.112, -3.190e-5, -4.769e-5
0.111, -3.180e-5, -4.795e-5
0.110, -3.161e-5, -4.822e-5
0.109, -3.149e-5, -4.848e-5
0.108, -3.132e-5, -4.874e-5
0.107, -3.120e-5, -4.900e-5
0.106, -3.100e-5, -4.926e-5
0.105, -3.092e-5, -4.952e-5
0.104, -3.071e-5, -4.977e-5
0.103, -3.065e-5, -5.003e-5
0.102, -3.044e-5, -5.028e-5
0.101, -3.038e-5, -5.053e-5
0.100, -3.018e-5, -5.079e-5
0.099, -3.013e-5, -5.104e-5
0.098, -2.992e-5, -5.129e-5
0.097, -2.988e-5, -5.154e-5
0.096, -2.969e-5, -5.178e-5
0.095, -2.961e-5, -5.203e-5
0.094, -2.944e-5, -5.227e-5
0.093, -2.936e-5, -5.252e-5
0.092, -2.920e-5, -5.276e-5
0.091, -2.912e-5, -5.301e-5
0.090, -2.893e-5, -5.325e-5
0.089, -2.889e-5, -5.349e-5
0.088, -2.871e-5, -5.373e-5
0.087, -2.867e-5, -5.397e-5
0.086, -2.848e-5, -5.420e-5
0.085, -2.844e-5, -5.444e-5
0.084, -2.827e-5, -5.468e-5
0.083, -2.823e-5, -5.491e-5
0.082, -2.804e-5, -5.514e-5
0.081, -2.801e-5, -5.538e-5
0.080, -2.782e-5, -5.561e-5
0.079, -2.779e-5, -5.584e-5
0.078, -2.761e-5, -5.607e-5
0.077, -2.758e-5, -5.630e-5
0.076, -2.741e-5, -5.653e-5
0.075, -2.737e-5, -5.676e-5
0.074, -2.724e-5, -5.698e-5
0.073, -2.719e-5, -5.721e-5
0.072, -2.702e-5, -5.744e-5
0.071, -2.699e-5, -5.766e-5
0.070, -2.683e-5, -5.788e-5
0.069, -2.680e-5, -5.811e-5
0.068, -2.664e-5, -5.833e-5
0.067, -2.660e-5, -5.855e-5
0.066, -2.646e-5, -5.877e-5
0.065, -2.643e-5, -5.899e-5
0.064, -2.629e-5, -5.921e-5
0.063, -2.628e-5, -5.943e-5
0.062, -2.610e-5, -5.965e-5
0.061, -2.609e-5, -5.987e-5
0.060, -2.592e-5, -6.008e-5
0.059, -2.589e-5, -6.030e-5
0.058, -2.579e-5, -6.051e-5
0.057, -2.574e-5, -6.073e-5
0.056, -2.561e-5, -6.094e-5
0.055, -2.558e-5, -6.115e-5
0.054, -2.543e-5, -6.137e-5
0.053, -2.541e-5, -6.158e-5
0.052, -2.530e-5, -6.179e-5
0.051, -2.528e-5, -6.200e-5
0.050, -2.512e-5, -6.221e-5
0.049, -2.511e-5, -6.242e-5
0.048, -2.497e-5, -6.263e-5
0.047, -2.494e-5, -6.283e-5
0.046, -2.484e-5, -6.304e-5
0.045, -2.482e-5, -6.325e-5
0.044, -2.468e-5, -6.345e-5
0.043, -2.466e-5, -6.366e-5
0.042, -2.455e-5, -6.386e-5
0.041, -2.453e-5, -6.407e-5
0.040, -2.439e-5, -6.427e-5
0.039, -2.439e-5, -6.447e-5
0.038, -2.427e-5, -6.468e-5
0.037, -2.425e-5, -6.488e-5
0.036, -2.413e-5, -6.508e-5
0.035, -2.411e-5, -6.528e-5
0.034, -2.399e-5, -6.548e-5
0.033, -2.396e-5, -6.568e-5
0.032, -2.388e-5, -6.588e-5
0.031, -2.386e-5, -6.608e-5
0.030, -2.373e-5, -6.628e-5
0.029, -2.371e-5, -6.647e-5
0.028, -2.362e-5, -6.667e-5
0.027, -2.361e-5, -6.687e-5
0.026, -2.348e-5, -6.706e-5
0.025, -2.345e-5, -6.726e-5
0.024, -2.338e-5, -6.745e-5
0.023, -2.336e-5, -6.765e-5
0.022, -2.323e-5, -6.784e-5
0.021, -2.322e-5, -6.803e-5
0.020, -2.311e-5, -6.823e-5
0.019, -2.312e-5, -6.842e-5
0.018, -2.297e-5, -6.861e-5
0.017, -2.299e-5, -6.880e-5
0.016, -2.288e-5, -6.899e-5
0.015, -2.289e-5, -6.918e-5
0.014, -2.275e-5, -6.937e-5
0.013, -2.277e-5, -6.956e-5
0.012, -2.266e-5, -6.975e-5
0.011, -2.266e-5, -6.994e-5
0.010, -2.255e-5, -7.013e-5
0.009, -2.254e-5, -7.032e-5
0.008, -2.244e-5, -7.050e-5
0.007, -2.244e-5, -7.069e-5
0.006, -2.234e-5, -7.088e-5
0.005, -2.235e-5, -7.106e-5
0.004, -2.218e-5, -7.125e-5
0.003, -2.222e-5, -7.143e-5
0.002, -2.205e-5, -7.162e-5
0.001, -2.208e-5, -7.180e-5
-0.000, -2.185e-5, -7.198e-5

Segment 2:
0.001, -2.171e-5, -7.216e-5
0.002, -2.154e-5, -7.234e-5
0.003, -2.151e-5, -7.252e-5
0.004, -2.141e-5, -7.270e-5
0.005, -2.138e-5, -7.288e-5
0.006, -2.122e-5, -7.306e-5
0.007, -2.123e-5, -7.323e-5
0.008, -2.108e-5, -7.341e-5
0.009, -2.111e-5, -7.358e-5
0.010, -2.096e-5, -7.376e-5
0.011, -2.097e-5, -7.393e-5
0.012, -2.084e-5, -7.411e-5
0.013, -2.084e-5, -7.428e-5
0.014, -2.072e-5, -7.445e-5
0.015, -2.071e-5, -7.463e-5
0.016, -2.060e-5, -7.480e-5
0.017, -2.061e-5, -7.497e-5
0.018, -2.048e-5, -7.514e-5
0.019, -2.049e-5, -7.531e-5
0.020, -2.039e-5, -7.548e-5
0.021, -2.041e-5, -7.565e-5
0.022, -2.026e-5, -7.582e-5
0.023, -2.028e-5, -7.599e-5
0.024, -2.016e-5, -7.616e-5
0.025, -2.017e-5, -7.632e-5
0.026, -2.004e-5, -7.649e-5
0.027, -2.004e-5, -7.666e-5
0.028, -1.996e-5, -7.683e-5
0.029, -1.996e-5, -7.699e-5
0.030, -1.984e-5, -7.716e-5
0.031, -1.986e-5, -7.732e-5
0.032, -1.974e-5, -7.749e-5
0.033, -1.975e-5, -7.765e-5
0.034, -1.965e-5, -7.782e-5
0.035, -1.967e-5, -7.798e-5
0.036, -1.954e-5, -7.814e-5
0.037, -1.954e-5, -7.830e-5
0.038, -1.948e-5, -7.847e-5
0.039, -1.947e-5, -7.863e-5
0.040, -1.939e-5, -7.879e-5
0.041, -1.938e-5, -7.895e-5
0.042, -1.926e-5, -7.911e-5
0.043, -1.927e-5, -7.927e-5
0.044, -1.915e-5, -7.943e-5
0.045, -1.919e-5, -7.959e-5
0.046, -1.904e-5, -7.975e-5
0.047, -1.908e-5, -7.991e-5
0.048, -1.898e-5, -8.007e-5
0.049, -1.899e-5, -8.023e-5
0.050, -1.888e-5, -8.038e-5
0.051, -1.889e-5, -8.054e-5
0.052, -1.878e-5, -8.070e-5
0.053, -1.880e-5, -8.086e-5
0.054, -1.871e-5, -8.101e-5
0.055, -1.873e-5, -8.117e-5
0.056, -1.861e-5, -8.132e-5
0.057, -1.864e-5, -8.148e-5
0.058, -1.852e-5, -8.163e-5
0.059, -1.853e-5, -8.179e-5
0.060, -1.846e-5, -8.194e-5
0.061, -1.847e-5, -8.209e-5
0.062, -1.835e-5, -8.225e-5
0.063, -1.836e-5, -8.240e-5
0.064, -1.826e-5, -8.255e-5
0.065, -1.828e-5, -8.270e-5
0.066, -1.817e-5, -8.286e-5
0.067, -1.820e-5, -8.301e-5
0.068, -1.806e-5, -8.316e-5
0.069, -1.809e-5, -8.331e-5
0.070, -1.800e-5, -8.346e-5
0.071, -1.801e-5, -8.361e-5
0.072, -1.792e-5, -8.376e-5
0.073, -1.792e-5, -8.391e-5
0.074, -1.782e-5, -8.406e-5
0.075, -1.781e-5, -8.420e-5
0.076, -1.775e-5, -8.435e-5
0.077, -1.775e-5, -8.450e-5
0.078, -1.764e-5, -8.465e-5
0.079, -1.766e-5, -8.479e-5
0.080, -1.756e-5, -8.494e-5
0.081, -1.756e-5, -8.509e-5
0.082, -1.750e-5, -8.523e-5
0.083, -1.749e-5, -8.538e-5
0.084, -1.740e-5, -8.552e-5
0.085, -1.738e-5, -8.567e-5
0.086, -1.729e-5, -8.581e-5
0.087, -1.729e-5, -8.596e-5
0.088, -1.720e-5, -8.610e-5
0.089, -1.722e-5, -8.624e-5
0.090, -1.709e-5, -8.639e-5
0.091, -1.710e-5, -8.653e-5
0.092, -1.702e-5, -8.667e-5
0.093, -1.703e-5, -8.681e-5
0.094, -1.691e-5, -8.695e-5
0.095, -1.693e-5, -8.709e-5
0.096, -1.682e-5, -8.723e-5
0.097, -1.682e-5, -8.737e-5
0.098, -1.675e-5, -8.751e-5
0.099, -1.674e-5, -8.765e-5
0.100, -1.664e-5, -8.779e-5
0.101, -1.663e-5, -8.793e-5
0.102, -1.655e-5, -8.807e-5
0.103, -1.655e-5, -8.821e-5
0.104, -1.644e-5, -8.834e-5
0.105, -1.645e-5, -8.848e-5
0.106, -1.633e-5, -8.862e-5
0.107, -1.633e-5, -8.875e-5
0.108, -1.623e-5, -8.889e-5
0.109, -1.621e-5, -8.902e-5
0.110, -1.611e-5, -8.916e-5
0.111, -1.609e-5, -8.929e-5
0.112, -1.603e-5, -8.943e-5
0.113, -1.600e-5, -8.956e-5
0.114, -1.588e-5, -8.969e-5
0.115, -1.587e-5, -8.982e-5
0.116, -1.578e-5, -8.995e-5
0.117, -1.578e-5, -9.009e-5
0.118, -1.565e-5, -9.022e-5
0.119, -1.562e-5, -9.035e-5
0.120, -1.557e-5, -9.048e-5
0.121, -1.553e-5, -9.061e-5
0.122, -1.540e-5, -9.073e-5
0.123, -1.538e-5, -9.086e-5
0.124, -1.525e-5, -9.099e-5
0.125, -1.526e-5, -9.112e-5
0.126, -1.509e-5, -9.124e-5
0.127, -1.511e-5, -9.137e-5
0.128, -1.495e-5, -9.149e-5
0.129, -1.497e-5, -9.162e-5
0.130, -1.483e-5, -9.174e-5
0.131, -1.482e-5, -9.186e-5
0.132, -1.467e-5, -9.199e-5
0.133, -1.464e-5, -9.211e-5
0.134, -1.453e-5, -9.223e-5
0.135, -1.449e-5, -9.235e-5
0.136, -1.432e-5, -9.247e-5
0.137, -1.431e-5, -9.259e-5
0.138, -1.413e-5, -9.271e-5
0.139, -1.413e-5, -9.283e-5
0.140, -1.395e-5, -9.294e-5
0.141, -1.393e-5, -9.306e-5
0.142, -1.376e-5, -9.317e-5
0.143, -1.372e-5, -9.329e-5
0.144, -1.360e-5, -9.340e-5
0.145, -1.353e-5, -9.351e-5
0.146, -1.336e-5, -9.362e-5
0.147, -1.331e-5, -9.373e-5
0.148, -1.314e-5, -9.384e-5
0.149, -1.309e-5, -9.395e-5
0.150, -1.289e-5, -9.406e-5
0.151, -1.286e-5, -9.417e-5
0.152, -1.266e-5, -9.427e-5
0.153, -1.262e-5, -9.438e-5
0.154, -1.239e-5, -9.448e-5
0.155, -1.232e-5, -9.458e-5
0.156, -1.215e-5, -9.469e-5
0.157, -1.203e-5, -9.479e-5
0.158, -1.186e-5, -9.488e-5
0.159, -1.174e-5, -9.498e-5
0.160, -1.157e-5, -9.508e-5
0.161, -1.146e-5, -9.517e-5
0.162, -1.121e-5, -9.527e-5
0.163, -1.114e-5, -9.536e-5
0.164, -1.089e-5, -9.545e-5
0.165, -1.079e-5, -9.554e-5
0.166, -1.055e-5, -9.563e-5
0.167, -1.042e-5, -9.572e-5
0.168, -1.020e-5, -9.580e-5
0.169, -1.002e-5, -9.588e-5
0.170, -9.804e-6, -9.597e-5
0.171, -9.643e-6, -9.605e-5
0.172, -9.386e-6, -9.612e-5
0.173, -9.229e-6, -9.620e-5
0.174, -8.944e-6, -9.628e-5
0.175, -8.789e-6, -9.635e-5
0.176, -8.492e-6, -9.642e-5
0.177, -8.305e-6, -9.649e-5
0.178, -8.029e-6, -9.656e-5
0.179, -7.795e-6, -9.662e-5
0.180, -7.526e-6, -9.668e-5
0.181, -7.295e-6, -9.675e-5
0.182, -7.001e-6, -9.680e-5
0.183, -6.762e-6, -9.686e-5
0.184, -6.342e-6, -9.691e-5
0.185, -6.141e-6, -9.696e-5
0.186, -5.778e-6, -9.701e-5
0.187, -5.548e-6, -9.706e-5
0.188, -5.154e-6, -9.710e-5
0.189, -4.909e-6, -9.714e-5
0.190, -4.525e-6, -9.718e-5
0.191, -4.222e-6, -9.721e-5
0.192, -3.879e-6, -9.725e-5
0.193, -3.531e-6, -9.728e-5
0.194, -3.164e-6, -9.730e-5
0.195, -2.825e-6, -9.733e-5
0.196, -2.400e-6, -9.735e-5
0.197, -2.082e-6, -9.736e-5
0.198, -1.612e-6, -9.738e-5
0.199, -1.296e-6, -9.739e-5
0.200, -8.300e-7, -9.740e-5
0.201, -4.662e-7, -9.740e-5
0.202, 4.121e-9, -9.740e-5
0.203, 4.472e-7, -9.740e-5
0.204, 9.596e-7, -9.739e-5
0.205, 1.342e-6, -9.738e-5
0.206, 1.873e-6, -9.736e-5
0.207, 2.282e-6, -9.734e-5
0.208, 2.846e-6, -9.732e-5
0.209, 3.204e-6, -9.729e-5
0.210, 3.842e-6, -9.726e-5
0.211, 4.207e-6, -9.722e-5
0.212, 4.864e-6, -9.718e-5
0.213, 5.253e-6, -9.714e-5
0.214, 5.892e-6, -9.709e-5
0.215, 6.359e-6, -9.704e-5
0.216, 6.954e-6, -9.698e-5
0.217, 7.464e-6, -9.692e-5
0.218, 8.087e-6, -9.685e-5
0.219, 8.593e-6, -9.678e-5
0.220, 9.337e-6, -9.670e-5
0.221, 9.809e-6, -9.662e-5
0.222, 1.056e-5, -9.653e-5
0.223, 1.097e-5, -9.644e-5
0.224, 1.177e-5, -9.634e-5
0.225, 1.225e-5, -9.624e-5
0.226, 1.298e-5, -9.613e-5
0.227, 1.355e-5, -9.602e-5
0.228, 1.423e-5, -9.590e-5
0.229, 1.484e-5, -9.578e-5
0.230, 1.554e-5, -9.565e-5
0.231, 1.615e-5, -9.551e-5
0.232, 1.695e-5, -9.537e-5
0.233, 1.750e-5, -9.522e-5
0.234, 1.835e-5, -9.507e-5
0.235, 1.885e-5, -9.491e-5
0.236, 1.973e-5, -9.475e-5
0.237, 2.028e-5, -9.458e-5
0.238, 2.109e-5, -9.441e-5
0.239, 2.176e-5, -9.422e-5
0.240, 2.247e-5, -9.404e-5
0.241, 2.317e-5, -9.384e-5
0.242, 2.395e-5, -9.364e-5
0.243, 2.466e-5, -9.344e-5
0.244, 2.551e-5, -9.323e-5
0.245, 2.608e-5, -9.301e-5
0.246, 2.699e-5, -9.278e-5
0.247, 2.758e-5, -9.255e-5
0.248, 2.847e-5, -9.232e-5
0.249, 2.909e-5, -9.207e-5
0.250, 2.994e-5, -9.182e-5
0.251, 3.062e-5, -9.157e-5
0.252, 3.138e-5, -9.131e-5
0.253, 3.211e-5, -9.104e-5
0.254, 3.287e-5, -9.077e-5
0.255, 3.357e-5, -9.049e-5
0.256, 3.441e-5, -9.020e-5
0.257, 3.501e-5, -8.991e-5
0.258, 3.591e-5, -8.961e-5
0.259, 3.647e-5, -8.931e-5
0.260, 3.738e-5, -8.899e-5
0.261, 3.799e-5, -8.868e-5
0.262, 3.881e-5, -8.835e-5
0.263, 3.949e-5, -8.802e-5
0.264, 4.027e-5, -8.769e-5
0.265, 4.097e-5, -8.735e-5
0.266, 4.170e-5, -8.700e-5
0.267, 4.236e-5, -8.665e-5
0.268, 4.313e-5, -8.629e-5
0.269, 4.368e-5, -8.592e-5
0.270, 4.457e-5, -8.555e-5
0.271, 4.506e-5, -8.518e-5
0.272, 4.588e-5, -8.479e-5
0.273, 4.640e-5, -8.441e-5
0.274, 4.716e-5, -8.401e-5
0.275, 4.774e-5, -8.362e-5
0.276, 4.841e-5, -8.321e-5
0.277, 4.903e-5, -8.280e-5
0.278, 4.967e-5, -8.239e-5
0.279, 5.019e-5, -8.197e-5
0.280, 5.085e-5, -8.155e-5
0.281, 5.129e-5, -8.112e-5
0.282, 5.204e-5, -8.069e-5
0.283, 5.240e-5, -8.025e-5
0.284, 5.310e-5, -7.981e-5
0.285, 5.347e-5, -7.936e-5
0.286, 5.407e-5, -7.891e-5
0.287, 5.452e-5, -7.846e-5
0.288, 5.501e-5, -7.800e-5
0.289, 5.545e-5, -7.754e-5
0.290, 5.599e-5, -7.707e-5
0.291, 5.638e-5, -7.660e-5
0.292, 5.688e-5, -7.613e-5
0.293, 5.714e-5, -7.565e-5
0.294, 5.767e-5, -7.517e-5
0.295, 5.786e-5, -7.469e-5
0.296, 5.837e-5, -7.420e-5
0.297, 5.858e-5, -7.371e-5
0.298, 5.896e-5, -7.322e-5
0.299, 5.920e-5, -7.273e-5
0.300, 5.951e-5, -7.223e-5
0.301, 5.974e-5, -7.174e-5
0.302, 6.003e-5, -7.124e-5
0.303, 6.017e-5, -7.073e-5
0.304, 6.047e-5, -7.023e-5
0.305, 6.055e-5, -6.973e-5
0.306, 6.087e-5, -6.922e-5
0.307, 6.085e-5, -6.871e-5
0.308, 6.117e-5, -6.820e-5
0.309, 6.113e-5, -6.769e-5
0.310, 6.133e-5, -6.718e-5
0.311, 6.136e-5, -6.667e-5
0.312, 6.144e-5, -6.616e-5
0.313, 6.147e-5, -6.564e-5
0.314, 6.153e-5, -6.513e-5
0.315, 6.151e-5, -6.462e-5
0.316, 6.156e-5, -6.411e-5
0.317, 6.143e-5, -6.359e-5
0.318, 6.152e-5, -6.308e-5
0.319, 6.131e-5, -6.257e-5
0.320, 6.138e-5, -6.206e-5
0.321, 6.121e-5, -6.155e-5
0.322, 6.122e-5, -6.104e-5
0.323, 6.103e-5, -6.053e-5
0.324, 6.093e-5, -6.002e-5
0.325, 6.079e-5, -5.952e-5
0.326, 6.064e-5, -5.901e-5
0.327, 6.045e-5, -5.851e-5
0.328, 6.035e-5, -5.800e-5
0.329, 6.006e-5, -5.750e-5
0.330, 5.998e-5, -5.700e-5
0.331, 5.963e-5, -5.651e-5
0.332, 5.956e-5, -5.601e-5
0.333, 5.920e-5, -5.552e-5
0.334, 5.908e-5, -5.503e-5
0.335, 5.877e-5, -5.454e-5
0.336, 5.856e-5, -5.405e-5
0.337, 5.827e-5, -5.356e-5
0.338, 5.804e-5, -5.308e-5
0.339, 5.771e-5, -5.260e-5
0.340, 5.753e-5, -5.212e-5
0.341, 5.714e-5, -5.164e-5
0.342, 5.698e-5, -5.117e-5
0.343, 5.656e-5, -5.070e-5
0.344, 5.641e-5, -5.023e-5
0.345, 5.594e-5, -4.976e-5
0.346, 5.572e-5, -4.930e-5
0.347, 5.533e-5, -4.883e-5
0.348, 5.510e-5, -4.837e-5
0.349, 5.473e-5, -4.792e-5
0.350, 5.447e-5, -4.746e-5
0.351, 5.410e-5, -4.701e-5
0.352, 5.386e-5, -4.656e-5
0.353, 5.345e-5, -4.612e-5
0.354, 5.325e-5, -4.568e-5
0.355, 5.283e-5, -4.524e-5
0.356, 5.261e-5, -4.480e-5
0.357, 5.219e-5, -4.436e-5
0.358, 5.199e-5, -4.393e-5
0.359, 5.158e-5, -4.350e-5
0.360, 5.135e-5, -4.307e-5
0.361, 5.097e-5, -4.265e-5
0.362, 5.071e-5, -4.222e-5
0.363, 5.034e-5, -4.180e-5
0.364, 5.011e-5, -4.139e-5
0.365, 4.969e-5, -4.097e-5
0.366, 4.952e-5, -4.056e-5
0.367, 4.910e-5, -4.015e-5
0.368, 4.891e-5, -3.974e-5
0.369, 4.848e-5, -3.934e-5
0.370, 4.831e-5, -3.894e-5
0.371, 4.790e-5, -3.854e-5
0.372, 4.768e-5, -3.814e-5
0.373, 4.733e-5, -3.775e-5
0.374, 4.712e-5, -3.735e-5
0.375, 4.673e-5, -3.696e-5
0.376, 4.654e-5, -3.658e-5
0.377, 4.617e-5, -3.619e-5
0.378, 4.599e-5, -3.581e-5
0.379, 4.562e-5, -3.543e-5
0.380, 4.546e-5, -3.505e-5
0.381, 4.509e-5, -3.467e-5
0.382, 4.490e-5, -3.430e-5
0.383, 4.455e-5, -3.393e-5
0.384, 4.438e-5, -3.356e-5
0.385, 4.403e-5, -3.319e-5
0.386, 4.386e-5, -3.283e-5
0.387, 4.352e-5, -3.246e-5
0.388, 4.336e-5, -3.210e-5
0.389, 4.303e-5, -3.174e-5
0.390, 4.288e-5, -3.139e-5
0.391, 4.253e-5, -3.103e-5
0.392, 4.241e-5, -3.068e-5
0.393, 4.205e-5, -3.033e-5
0.394, 4.194e-5, -2.998e-5
0.395, 4.160e-5, -2.963e-5
0.396, 4.147e-5, -2.929e-5
0.397, 4.118e-5, -2.894e-5
0.398, 4.102e-5, -2.860e-5
0.399, 4.072e-5, -2.826e-5
0.400, 4.058e-5, -2.792e-5
0.401, 4.026e-5, -2.759e-5
0.402, 4.013e-5, -2.725e-5
0.403, 3.980e-5, -2.692e-5
0.404, 3.970e-5, -2.659e-5
0.405, 3.937e-5, -2.626e-5
0.406, 3.931e-5, -2.594e-5
0.407, 3.897e-5, -2.561e-5
0.408, 3.886e-5, -2.529e-5
0.409, 3.859e-5, -2.497e-5
0.410, 3.847e-5, -2.464e-5
0.411, 3.820e-5, -2.433e-5
0.412, 3.810e-5, -2.401e-5
0.413, 3.783e-5, -2.369e-5
0.414, 3.774e-5, -2.338e-5
0.415, 3.745e-5, -2.307e-5
0.416, 3.739e-5, -2.276e-5
0.417, 3.711e-5, -2.245e-5
0.418, 3.701e-5, -2.214e-5
0.419, 3.675e-5, -2.183e-5
0.420, 3.667e-5, -2.153e-5
0.421, 3.642e-5, -2.122e-5
0.422, 3.636e-5, -2.092e-5
0.423, 3.609e-5, -2.062e-5
0.424, 3.599e-5, -2.032e-5
0.425, 3.574e-5, -2.002e-5
0.426, 3.569e-5, -1.972e-5
0.427, 3.543e-5, -1.943e-5
0.428, 3.540e-5, -1.913e-5
0.429, 3.512e-5, -1.884e-5
0.430, 3.507e-5, -1.855e-5
0.431, 3.481e-5, -1.826e-5
0.432, 3.475e-5, -1.797e-5
0.433, 3.451e-5, -1.768e-5
0.434, 3.447e-5, -1.739e-5
0.435, 3.422e-5, -1.711e-5
0.436, 3.418e-5, -1.682e-5
0.437, 3.395e-5, -1.654e-5
0.438, 3.392e-5, -1.626e-5
0.439, 3.367e-5, -1.598e-5
0.440, 3.364e-5, -1.570e-5
0.441, 3.341e-5, -1.542e-5
0.442, 3.338e-5, -1.514e-5
0.443, 3.311e-5, -1.486e-5
0.444, 3.308e-5, -1.459e-5
0.445, 3.286e-5, -1.432e-5
0.446, 3.283e-5, -1.404e-5
0.447, 3.261e-5, -1.377e-5
0.448, 3.257e-5, -1.350e-5
0.449, 3.235e-5, -1.323e-5
0.450, 3.235e-5, -1.296e-5
0.451, 3.213e-5, -1.269e-5
0.452, 3.211e-5, -1.242e-5
0.453, 3.189e-5, -1.216e-5
0.454, 3.190e-5, -1.189e-5
0.455, 3.166e-5, -1.163e-5
0.456, 3.165e-5, -1.136e-5
0.457, 3.146e-5, -1.110e-5
0.458, 3.142e-5, -1.084e-5
0.459, 3.121e-5, -1.058e-5
0.460, 3.115e-5, -1.032e-5
0.461, 3.099e-5, -1.006e-5
0.462, 3.097e-5, -9.805e-6
0.463, 3.076e-5, -9.548e-6
0.464, 3.075e-5, -9.292e-6
0.465, 3.055e-5, -9.038e-6
0.466, 3.055e-5, -8.783e-6
0.467, 3.033e-5, -8.530e-6
0.468, 3.032e-5, -8.278e-6
0.469, 3.012e-5, -8.027e-6
0.470, 3.011e-5, -7.776e-6
0.471, 2.994e-5, -7.526e-6
0.472, 2.993e-5, -7.277e-6
0.473, 2.974e-5, -7.029e-6
0.474, 2.974e-5, -6.781e-6
0.475, 2.956e-5, -6.535e-6
0.476, 2.956e-5, -6.289e-6
0.477, 2.935e-5, -6.044e-6
0.478, 2.935e-5, -5.799e-6
0.479, 2.915e-5, -5.556e-6
0.480, 2.915e-5, -5.314e-6
0.481, 2.900e-5, -5.072e-6
0.482, 2.900e-5, -4.830e-6
0.483, 2.882e-5, -4.590e-6
0.484, 2.881e-5, -4.350e-6
0.485, 2.862e-5, -4.112e-6
0.486, 2.863e-5, -3.873e-6
0.487, 2.844e-5, -3.636e-6
0.488, 2.847e-5, -3.399e-6
0.489, 2.828e-5, -3.163e-6
0.490, 2.830e-5, -2.927e-6
0.491, 2.811e-5, -2.693e-6
0.492, 2.812e-5, -2.458e-6
0.493, 2.795e-5, -2.226e-6
0.494, 2.797e-5, -1.992e-6
0.495, 2.780e-5, -1.761e-6
0.496, 2.781e-5, -1.529e-6
0.497, 2.763e-5, -1.299e-6
0.498, 2.764e-5, -1.069e-6
0.499, 2.747e-5, -8.396e-7
0.500, 2.735e-5, -6.116e-7

Segment 3:
0.499, 2.697e-5, -3.869e-7
0.498, 2.692e-5, -1.625e-7
0.497, 2.669e-5, 5.992e-8
0.496, 2.667e-5, 2.822e-7
0.495, 2.646e-5, 5.026e-7
0.494, 2.644e-5, 7.230e-7
0.493, 2.626e-5, 9.418e-7
0.492, 2.623e-5, 1.160e-6
0.491, 2.607e-5, 1.378e-6
0.490, 2.607e-5, 1.595e-6
0.489, 2.587e-5, 1.810e-6
0.488, 2.588e-5, 2.026e-6
0.487, 2.568e-5, 2.240e-6
0.486, 2.569e-5, 2.454e-6
0.485, 2.551e-5, 2.667e-6
0.484, 2.550e-5, 2.879e-6
0.483, 2.533e-5, 3.090e-6
0.482, 2.533e-5, 3.301e-6
0.481, 2.517e-5, 3.511e-6
0.480, 2.517e-5, 3.721e-6
0.479, 2.498e-5, 3.929e-6
0.478, 2.500e-5, 4.137e-6
0.477, 2.481e-5, 4.344e-6
0.476, 2.486e-5, 4.551e-6
0.475, 2.465e-5, 4.757e-6
0.474, 2.469e-5, 4.962e-6
0.473, 2.447e-5, 5.166e-6
0.472, 2.449e-5, 5.370e-6
0.471, 2.429e-5, 5.573e-6
0.470, 2.429e-5, 5.775e-6
0.469, 2.416e-5, 5.977e-6
0.468, 2.417e-5, 6.178e-6
0.467, 2.399e-5, 6.378e-6
0.466, 2.401e-5, 6.578e-6
0.465, 2.385e-5, 6.777e-6
0.464, 2.388e-5, 6.976e-6
0.463, 2.371e-5, 7.173e-6
0.462, 2.373e-5, 7.371e-6
0.461, 2.356e-5, 7.568e-6
0.460, 2.358e-5, 7.764e-6
0.459, 2.343e-5, 7.959e-6
0.458, 2.342e-5, 8.155e-6
0.457, 2.327e-5, 8.348e-6
0.456, 2.327e-5, 8.542e-6
0.455, 2.314e-5, 8.735e-6
0.454, 2.316e-5, 8.928e-6
0.453, 2.299e-5, 9.120e-6
0.452, 2.301e-5, 9.312e-6
0.451, 2.286e-5, 9.502e-6
0.450, 2.289e-5, 9.693e-6
0.449, 2.273e-5, 9.882e-6
0.448, 2.274e-5, 1.007e-5
0.447, 2.259e-5, 1.026e-5
0.446, 2.261e-5, 1.045e-5
0.445, 2.247e-5, 1.064e-5
0.444, 2.247e-5, 1.082e-5
0.443, 2.232e-5, 1.101e-5
0.442, 2.234e-5, 1.120e-5
0.441, 2.220e-5, 1.138e-5
0.440, 2.223e-5, 1.157e-5
0.439, 2.205e-5, 1.175e-5
0.438, 2.208e-5, 1.193e-5
0.437, 2.194e-5, 1.212e-5
0.436, 2.196e-5, 1.230e-5
0.435, 2.180e-5, 1.248e-5
0.434, 2.181e-5, 1.266e-5
0.433, 2.171e-5, 1.284e-5
0.432, 2.172e-5, 1.302e-5
0.431, 2.155e-5, 1.320e-5
0.430, 2.156e-5, 1.338e-5
0.429, 2.140e-5, 1.356e-5
0.428, 2.143e-5, 1.374e-5
0.427, 2.127e-5, 1.392e-5
0.426, 2.130e-5, 1.410e-5
0.425, 2.114e-5, 1.427e-5
0.424, 2.117e-5, 1.445e-5
0.423, 2.103e-5, 1.462e-5
0.422, 2.104e-5, 1.480e-5
0.421, 2.089e-5, 1.497e-5
0.420, 2.090e-5, 1.515e-5
0.419, 2.076e-5, 1.532e-5
0.418, 2.079e-5, 1.549e-5
0.417, 2.061e-5, 1.566e-5
0.416, 2.065e-5, 1.584e-5
0.415, 2.048e-5, 1.601e-5
0.414, 2.051e-5, 1.618e-5
0.413, 2.032e-5, 1.635e-5
0.412, 2.035e-5, 1.652e-5
0.411, 2.022e-5, 1.669e-5
0.410, 2.024e-5, 1.685e-5
0.409, 2.006e-5, 1.702e-5
0.408, 2.007e-5, 1.719e-5
0.407, 1.991e-5, 1.735e-5
0.406, 1.994e-5, 1.752e-5
0.405, 1.978e-5, 1.769e-5
0.404, 1.981e-5, 1.785e-5
0.403, 1.961e-5, 1.801e-5
0.402, 1.964e-5, 1.818e-5
0.401, 1.947e-5, 1.834e-5
0.400, 1.948e-5, 1.850e-5
0.399, 1.932e-5, 1.866e-5
0.398, 1.932e-5, 1.882e-5
0.397, 1.915e-5, 1.898e-5
0.396, 1.915e-5, 1.914e-5
0.395, 1.900e-5, 1.930e-5
0.394, 1.901e-5, 1.946e-5
0.393, 1.882e-5, 1.962e-5
0.392, 1.885e-5, 1.977e-5
0.391, 1.863e-5, 1.993e-5
0.390, 1.866e-5, 2.009e-5
0.389, 1.847e-5, 2.024e-5
0.388, 1.848e-5, 2.039e-5
0.387, 1.831e-5, 2.055e-5
0.386, 1.830e-5, 2.070e-5
0.385, 1.811e-5, 2.085e-5
0.384, 1.810e-5, 2.100e-5
0.383, 1.790e-5, 2.115e-5
0.382, 1.791e-5, 2.130e-5
0.381, 1.772e-5, 2.145e-5
0.380, 1.773e-5, 2.159e-5
0.379, 1.749e-5, 2.174e-5
0.378, 1.750e-5, 2.189e-5
0.377, 1.729e-5, 2.203e-5
0.376, 1.727e-5, 2.217e-5
0.375, 1.708e-5, 2.232e-5
0.374, 1.705e-5, 2.246e-5
0.373, 1.685e-5, 2.260e-5
0.372, 1.682e-5, 2.274e-5
0.371, 1.657e-5, 2.288e-5
0.370, 1.655e-5, 2.301e-5
0.369, 1.632e-5, 2.315e-5
0.368, 1.632e-5, 2.329e-5
0.367, 1.605e-5, 2.342e-5
0.366, 1.602e-5, 2.355e-5
0.365, 1.579e-5, 2.369e-5
0.364, 1.570e-5, 2.382e-5
0.363, 1.548e-5, 2.395e-5
0.362, 1.541e-5, 2.407e-5
0.361, 1.518e-5, 2.420e-5
0.360, 1.511e-5, 2.433e-5
0.359, 1.487e-5, 2.445e-5
0.358, 1.480e-5, 2.457e-5
0.357, 1.450e-5, 2.469e-5
0.356, 1.445e-5, 2.481e-5
0.355, 1.417e-5, 2.493e-5
0.354, 1.409e-5, 2.505e-5
0.353, 1.384e-5, 2.517e-5
0.352, 1.370e-5, 2.528e-5
0.351, 1.344e-5, 2.539e-5
0.350, 1.330e-5, 2.550e-5
0.349, 1.302e-5, 2.561e-5
0.348, 1.291e-5, 2.572e-5
0.347, 1.258e-5, 2.582e-5
0.346, 1.249e-5, 2.593e-5
0.345, 1.214e-5, 2.603e-5
0.344, 1.204e-5, 2.613e-5
0.343, 1.167e-5, 2.623e-5
0.342, 1.153e-5, 2.632e-5
0.341, 1.120e-5, 2.642e-5
0.340, 1.103e-5, 2.651e-5
0.339, 1.070e-5, 2.660e-5
0.338, 1.050e-5, 2.668e-5
0.337, 1.014e-5, 2.677e-5
0.336, 9.959e-6, 2.685e-5
0.335, 9.562e-6, 2.693e-5
0.334, 9.403e-6, 2.701e-5
0.333, 8.968e-6, 2.708e-5
0.332, 8.736e-6, 2.716e-5
0.331, 8.289e-6, 2.723e-5
0.330, 8.089e-6, 2.729e-5
0.329, 7.653e-6, 2.736e-5
0.328, 7.387e-6, 2.742e-5
0.327, 7.000e-6, 2.748e-5
0.326, 6.690e-6, 2.753e-5
0.325, 6.272e-6, 2.759e-5
0.324, 5.999e-6, 2.764e-5
0.323, 5.502e-6, 2.768e-5
0.322, 5.252e-6, 2.772e-5
0.321, 4.719e-6, 2.776e-5
0.320, 4.466e-6, 2.780e-5
0.319, 3.924e-6, 2.783e-5
0.318, 3.614e-6, 2.786e-5
0.317, 3.096e-6, 2.789e-5
0.316, 2.738e-6, 2.791e-5
0.315, 2.248e-6, 2.793e-5
0.314, 1.846e-6, 2.795e-5
0.313, 1.295e-6, 2.796e-5
0.312, 8.961e-7, 2.797e-5
0.311, 2.904e-7, 2.797e-5
0.310, -1.574e-7, 2.797e-5
0.309, -7.316e-7, 2.796e-5
0.308, -1.153e-6, 2.795e-5
0.307, -1.755e-6, 2.794e-5
0.306, -2.222e-6, 2.792e-5
0.305, -2.788e-6, 2.789e-5
0.304, -3.299e-6, 2.787e-5
0.303, -3.851e-6, 2.783e-5
0.302, -4.413e-6, 2.780e-5
0.301, -4.964e-6, 2.776e-5
0.300, -5.512e-6, 2.771e-5
0.299, -6.151e-6, 2.766e-5
0.298, -6.709e-6, 2.760e-5
0.297, -7.427e-6, 2.754e-5
0.296, -7.931e-6, 2.748e-5
0.295, -8.631e-6, 2.740e-5
0.294, -9.181e-6, 2.733e-5
0.293, -9.823e-6, 2.725e-5
0.292, -1.049e-5, 2.716e-5
0.291, -1.110e-5, 2.707e-5
0.290, -1.177e-5, 2.697e-5
0.289, -1.243e-5, 2.686e-5
0.288, -1.304e-5, 2.675e-5
0.287, -1.379e-5, 2.664e-5
0.286, -1.438e-5, 2.652e-5
0.285, -1.521e-5, 2.639e-5
0.284, -1.579e-5, 2.626e-5
0.283, -1.656e-5, 2.612e-5
0.282, -1.718e-5, 2.598e-5
0.281, -1.792e-5, 2.583e-5
0.280, -1.863e-5, 2.568e-5
0.279, -1.934e-5, 2.551e-5
0.278, -2.007e-5, 2.535e-5
0.277, -2.078e-5, 2.517e-5
0.276, -2.146e-5, 2.500e-5
0.275, -2.233e-5, 2.481e-5
0.274, -2.297e-5, 2.462e-5
0.273, -2.382e-5, 2.442e-5
0.272, -2.444e-5, 2.422e-5
0.271, -2.528e-5, 2.401e-5
0.270, -2.593e-5, 2.379e-5
0.269, -2.671e-5, 2.357e-5
0.268, -2.747e-5, 2.334e-5
0.267, -2.818e-5, 2.310e-5
0.266, -2.893e-5, 2.286e-5
0.265, -2.970e-5, 2.261e-5
0.264, -3.035e-5, 2.236e-5
0.263, -3.119e-5, 2.210e-5
0.262, -3.184e-5, 2.184e-5
0.261, -3.270e-5, 2.156e-5
0.260, -3.331e-5, 2.129e-5
0.259, -3.416e-5, 2.100e-5
0.258, -3.480e-5, 2.071e-5
0.257, -3.554e-5, 2.042e-5
0.256, -3.628e-5, 2.011e-5
0.255, -3.698e-5, 1.980e-5
0.254, -3.773e-5, 1.949e-5
0.253, -3.849e-5, 1.917e-5
0.252, -3.917e-5, 1.884e-5
0.251, -3.993e-5, 1.851e-5
0.250, -4.050e-5, 1.817e-5
0.249, -4.133e-5, 1.783e-5
0.248, -4.186e-5, 1.748e-5
0.247, -4.265e-5, 1.712e-5
0.246, -4.324e-5, 1.676e-5
0.245, -4.391e-5, 1.640e-5
0.244, -4.454e-5, 1.603e-5
0.243, -4.518e-5, 1.565e-5
0.242, -4.580e-5, 1.527e-5
0.241, -4.644e-5, 1.488e-5
0.240, -4.700e-5, 1.449e-5
0.239, -4.767e-5, 1.409e-5
0.238, -4.811e-5, 1.369e-5
0.237, -4.882e-5, 1.329e-5
0.236, -4.926e-5, 1.287e-5
0.235, -4.990e-5, 1.246e-5
0.234, -5.032e-5, 1.204e-5
0.233, -5.087e-5, 1.162e-5
0.232, -5.137e-5, 1.119e-5
0.231, -5.186e-5, 1.076e-5
0.230, -5.231e-5, 1.032e-5
0.229, -5.281e-5, 9.879e-6
0.228, -5.319e-5, 9.436e-6
0.227, -5.372e-5, 8.988e-6
0.226, -5.404e-5, 8.538e-6
0.225, -5.457e-5, 8.083e-6
0.224, -5.484e-5, 7.626e-6
0.223, -5.529e-5, 7.165e-6
0.222, -5.557e-5, 6.702e-6
0.221, -5.591e-5, 6.236e-6
0.220, -5.620e-5, 5.768e-6
0.219, -5.648e-5, 5.297e-6
0.218, -5.677e-5, 4.824e-6
0.217, -5.704e-5, 4.349e-6
0.216, -5.723e-5, 3.872e-6
0.215, -5.756e-5, 3.392e-6
0.214, -5.761e-5, 2.912e-6
0.213, -5.794e-5, 2.430e-6
0.212, -5.798e-5, 1.946e-6
0.211, -5.827e-5, 1.461e-6
0.210, -5.831e-5, 9.748e-7
0.209, -5.848e-5, 4.875e-7
0.208, -5.857e-5, -6.510e-10
0.207, -5.863e-5, -4.893e-7
0.206, -5.871e-5, -9.785e-7
0.205, -5.877e-5, -1.468e-6
0.204, -5.872e-5, -1.958e-6
0.203, -5.882e-5, -2.448e-6
0.202, -5.873e-5, -2.937e-6
0.201, -5.883e-5, -3.427e-6
0.200, -5.868e-5, -3.916e-6
0.199, -5.878e-5, -4.406e-6
0.198, -5.862e-5, -4.895e-6
0.197, -5.860e-5, -5.383e-6
0.196, -5.850e-5, -5.871e-6
0.195, -5.841e-5, -6.357e-6
0.194, -5.826e-5, -6.843e-6
0.193, -5.819e-5, -7.328e-6
0.192, -5.803e-5, -7.811e-6
0.191, -5.794e-5, -8.294e-6
0.190, -5.766e-5, -8.775e-6
0.189, -5.760e-5, -9.255e-6
0.188, -5.730e-5, -9.732e-6
0.187, -5.723e-5, -1.021e-5
0.186, -5.694e-5, -1.068e-5
0.185, -5.678e-5, -1.116e-5
0.184, -5.655e-5, -1.163e-5
0.183, -5.635e-5, -1.210e-5
0.182, -5.609e-5, -1.257e-5
0.181, -5.586e-5, -1.303e-5
0.180, -5.559e-5, -1.349e-5
0.179, -5.540e-5, -1.396e-5
0.178, -5.505e-5, -1.441e-5
0.177, -5.489e-5, -1.487e-5
0.176, -5.451e-5, -1.533e-5
0.175, -5.433e-5, -1.578e-5
0.174, -5.396e-5, -1.623e-5
0.173, -5.374e-5, -1.668e-5
0.172, -5.334e-5, -1.712e-5
0.171, -5.310e-5, -1.756e-5
0.170, -5.277e-5, -1.800e-5
0.169, -5.252e-5, -1.844e-5
0.168, -5.217e-5, -1.888e-5
0.167, -5.195e-5, -1.931e-5
0.166, -5.156e-5, -1.974e-5
0.165, -5.137e-5, -2.017e-5
0.164, -5.096e-5, -2.059e-5
0.163, -5.075e-5, -2.101e-5
0.162, -5.036e-5, -2.143e-5
0.161, -5.012e-5, -2.185e-5
0.160, -4.978e-5, -2.227e-5
0.159, -4.952e-5, -2.268e-5
0.158, -4.918e-5, -2.309e-5
0.157, -4.892e-5, -2.350e-5
0.156, -4.858e-5, -2.390e-5
0.155, -4.833e-5, -2.430e-5
0.154, -4.799e-5, -2.470e-5
0.153, -4.777e-5, -2.510e-5
0.152, -4.738e-5, -2.550e-5
0.151, -4.717e-5, -2.589e-5
0.150, -4.683e-5, -2.628e-5
0.149, -4.658e-5, -2.667e-5
0.148, -4.623e-5, -2.705e-5
0.147, -4.601e-5, -2.744e-5
0.146, -4.566e-5, -2.782e-5
0.145, -4.543e-5, -2.820e-5
0.144, -4.510e-5, -2.857e-5
0.143, -4.489e-5, -2.895e-5
0.142, -4.452e-5, -2.932e-5
0.141, -4.436e-5, -2.969e-5
0.140, -4.399e-5, -3.005e-5
0.139, -4.383e-5, -3.042e-5
0.138, -4.347e-5, -3.078e-5
0.137, -4.327e-5, -3.114e-5
0.136, -4.297e-5, -3.150e-5
0.135, -4.276e-5, -3.186e-5
0.134, -4.246e-5, -3.221e-5
0.133, -4.226e-5, -3.256e-5
0.132, -4.197e-5, -3.291e-5
0.131, -4.177e-5, -3.326e-5
0.130, -4.147e-5, -3.360e-5
0.129, -4.130e-5, -3.395e-5
0.128, -4.099e-5, -3.429e-5
0.127, -4.083e-5, -3.463e-5
0.126, -4.052e-5, -3.497e-5
0.125, -4.036e-5, -3.530e-5
0.124, -4.009e-5, -3.564e-5
0.123, -3.991e-5, -3.597e-5
0.122, -3.964e-5, -3.630e-5
0.121, -3.947e-5, -3.663e-5
0.120, -3.922e-5, -3.696e-5
0.119, -3.904e-5, -3.728e-5
0.118, -3.877e-5, -3.761e-5
0.117, -3.862e-5, -3.793e-5
0.116, -3.834e-5, -3.825e-5
0.115, -3.823e-5, -3.857e-5
0.114, -3.795e-5, -3.888e-5
0.113, -3.779e-5, -3.920e-5
0.112, -3.751e-5, -3.951e-5
0.111, -3.735e-5, -3.982e-5
0.110, -3.710e-5, -4.013e-5
0.109, -3.698e-5, -4.044e-5
0.108, -3.673e-5, -4.074e-5
0.107, -3.660e-5, -4.105e-5
0.106, -3.636e-5, -4.135e-5
0.105, -3.626e-5, -4.165e-5
0.104, -3.602e-5, -4.195e-5
0.103, -3.590e-5, -4.225e-5
0.102, -3.564e-5, -4.255e-5
0.101, -3.556e-5, -4.285e-5
0.100, -3.533e-5, -4.314e-5
0.099, -3.519e-5, -4.343e-5
0.098, -3.502e-5, -4.373e-5
0.097, -3.487e-5, -4.402e-5
0.096, -3.465e-5, -4.431e-5
0.095, -3.454e-5, -4.459e-5
0.094, -3.434e-5, -4.488e-5
0.093, -3.423e-5, -4.516e-5
0.092, -3.402e-5, -4.545e-5
0.091, -3.392e-5, -4.573e-5
0.090, -3.370e-5, -4.601e-5
0.089, -3.362e-5, -4.629e-5
0.088, -3.342e-5, -4.657e-5
0.087, -3.333e-5, -4.685e-5
0.086, -3.315e-5, -4.712e-5
0.085, -3.302e-5, -4.740e-5
0.084, -3.285e-5, -4.767e-5
0.083, -3.274e-5, -4.795e-5
0.082, -3.256e-5, -4.822e-5
0.081, -3.246e-5, -4.849e-5
0.080, -3.229e-5, -4.876e-5
0.079, -3.221e-5, -4.903e-5
0.078, -3.202e-5, -4.929e-5
0.077, -3.194e-5, -4.956e-5
0.076, -3.176e-5, -4.982e-5
0.075, -3.168e-5, -5.009e-5
0.074, -3.151e-5, -5.035e-5
0.073, -3.143e-5, -5.061e-5
0.072, -3.127e-5, -5.087e-5
0.071, -3.118e-5, -5.113e-5
0.070, -3.099e-5, -5.139e-5
0.069, -3.095e-5, -5.165e-5
0.068, -3.073e-5, -5.190e-5
0.067, -3.071e-5, -5.216e-5
0.066, -3.049e-5, -5.241e-5
0.065, -3.047e-5, -5.267e-5
0.064, -3.027e-5, -5.292e-5
0.063, -3.024e-5, -5.317e-5
0.062, -3.006e-5, -5.342e-5
0.061, -3.002e-5, -5.367e-5
0.060, -2.985e-5, -5.392e-5
0.059, -2.981e-5, -5.417e-5
0.058, -2.966e-5, -5.442e-5
0.057, -2.961e-5, -5.466e-5
0.056, -2.943e-5, -5.491e-5
0.055, -2.941e-5, -5.515e-5
0.054, -2.923e-5, -5.540e-5
0.053, -2.920e-5, -5.564e-5
0.052, -2.901e-5, -5.588e-5
0.051, -2.899e-5, -5.613e-5
0.050, -2.881e-5, -5.637e-5
0.049, -2.878e-5, -5.660e-5
0.048, -2.863e-5, -5.684e-5
0.047, -2.858e-5, -5.708e-5
0.046, -2.843e-5, -5.732e-5
0.045, -2.840e-5, -5.756e-5
0.044, -2.826e-5, -5.779e-5
0.043, -2.824e-5, -5.803e-5
0.042, -2.805e-5, -5.826e-5
0.041, -2.804e-5, -5.849e-5
0.040, -2.785e-5, -5.873e-5
0.039, -2.783e-5, -5.896e-5
0.038, -2.771e-5, -5.919e-5
0.037, -2.766e-5, -5.942e-5
0.036, -2.753e-5, -5.965e-5
0.035, -2.750e-5, -5.988e-5
0.034, -2.734e-5, -6.011e-5
0.033, -2.732e-5, -6.033e-5
0.032, -2.718e-5, -6.056e-5
0.031, -2.716e-5, -6.079e-5
0.030, -2.700e-5, -6.101e-5
0.029, -2.700e-5, -6.124e-5
0.028, -2.683e-5, -6.146e-5
0.027, -2.682e-5, -6.168e-5
0.026, -2.668e-5, -6.191e-5
0.025, -2.665e-5, -6.213e-5
0.024, -2.653e-5, -6.235e-5
0.023, -2.651e-5, -6.257e-5
0.022, -2.636e-5, -6.279e-5
0.021, -2.635e-5, -6.301e-5
0.020, -2.622e-5, -6.323e-5
0.019, -2.621e-5, -6.345e-5
0.018, -2.606e-5, -6.366e-5
0.017, -2.606e-5, -6.388e-5
0.016, -2.590e-5, -6.410e-5
0.015, -2.588e-5, -6.431e-5
0.014, -2.579e-5, -6.453e-5
0.013, -2.576e-5, -6.474e-5
0.012, -2.563e-5, -6.495e-5
0.011, -2.561e-5, -6.517e-5
0.010, -2.549e-5, -6.538e-5
0.009, -2.547e-5, -6.559e-5
0.008, -2.535e-5, -6.580e-5
0.007, -2.534e-5, -6.601e-5
0.006, -2.520e-5, -6.622e-5
0.005, -2.519e-5, -6.643e-5
0.004, -2.507e-5, -6.664e-5
0.003, -2.507e-5, -6.685e-5
0.002, -2.493e-5, -6.706e-5
0.001, -2.491e-5, -6.727e-5
0.000, -2.471e-5, -6.747e-5

Segment 4:
0.001, -2.454e-5, -6.768e-5
0.002, -2.437e-5, -6.788e-5
0.003, -2.433e-5, -6.808e-5
0.004, -2.415e-5, -6.829e-5
0.005, -2.413e-5, -6.849e-5
0.006, -2.396e-5, -6.869e-5
0.007, -2.393e-5, -6.889e-5
0.008, -2.383e-5, -6.908e-5
0.009, -2.378e-5, -6.928e-5
0.010, -2.365e-5, -6.948e-5
0.011, -2.363e-5, -6.968e-5
0.012, -2.351e-5, -6.987e-5
0.013, -2.346e-5, -7.007e-5
0.014, -2.336e-5, -7.026e-5
0.015, -2.334e-5, -7.046e-5
0.016, -2.317e-5, -7.065e-5
0.017, -2.318e-5, -7.084e-5
0.018, -2.303e-5, -7.104e-5
0.019, -2.304e-5, -7.123e-5
0.020, -2.290e-5, -7.142e-5
0.021, -2.290e-5, -7.161e-5
0.022, -2.276e-5, -7.180e-5
0.023, -2.275e-5, -7.199e-5
0.024, -2.264e-5, -7.218e-5
0.025, -2.264e-5, -7.237e-5
0.026, -2.249e-5, -7.255e-5
0.027, -2.249e-5, -7.274e-5
0.028, -2.238e-5, -7.293e-5
0.029, -2.239e-5, -7.311e-5
0.030, -2.220e-5, -7.330e-5
0.031, -2.223e-5, -7.348e-5
0.032, -2.204e-5, -7.367e-5
0.033, -2.206e-5, -7.385e-5
0.034, -2.193e-5, -7.403e-5
0.035, -2.193e-5, -7.422e-5
0.036, -2.182e-5, -7.440e-5
0.037, -2.182e-5, -7.458e-5
0.038, -2.169e-5, -7.476e-5
0.039, -2.170e-5, -7.494e-5
0.040, -2.156e-5, -7.512e-5
0.041, -2.158e-5, -7.530e-5
0.042, -2.145e-5, -7.548e-5
0.043, -2.146e-5, -7.566e-5
0.044, -2.135e-5, -7.584e-5
0.045, -2.134e-5, -7.601e-5
0.046, -2.121e-5, -7.619e-5
0.047, -2.121e-5, -7.637e-5
0.048, -2.110e-5, -7.654e-5
0.049, -2.112e-5, -7.672e-5
0.050, -2.097e-5, -7.689e-5
0.051, -2.099e-5, -7.707e-5
0.052, -2.087e-5, -7.724e-5
0.053, -2.091e-5, -7.742e-5
0.054, -2.075e-5, -7.759e-5
0.055, -2.077e-5, -7.776e-5
0.056, -2.066e-5, -7.794e-5
0.057, -2.067e-5, -7.811e-5
0.058, -2.054e-5, -7.828e-5
0.059, -2.054e-5, -7.845e-5
0.060, -2.046e-5, -7.862e-5
0.061, -2.046e-5, -7.879e-5
0.062, -2.035e-5, -7.896e-5
0.063, -2.036e-5, -7.913e-5
0.064, -2.022e-5, -7.930e-5
0.065, -2.024e-5, -7.947e-5
0.066, -2.011e-5, -7.964e-5
0.067, -2.013e-5, -7.980e-5
0.068, -2.000e-5, -7.997e-5
0.069, -2.001e-5, -8.014e-5
0.070, -1.992e-5, -8.030e-5
0.071, -1.992e-5, -8.047e-5
0.072, -1.980e-5, -8.063e-5
0.073, -1.979e-5, -8.080e-5
0.074, -1.970e-5, -8.096e-5
0.075, -1.971e-5, -8.113e-5
0.076, -1.958e-5, -8.129e-5
0.077, -1.959e-5, -8.145e-5
0.078, -1.949e-5, -8.162e-5
0.079, -1.949e-5, -8.178e-5
0.080, -1.942e-5, -8.194e-5
0.081, -1.940e-5, -8.210e-5
0.082, -1.927e-5, -8.226e-5
0.083, -1.928e-5, -8.242e-5
0.084, -1.916e-5, -8.258e-5
0.085, -1.918e-5, -8.274e-5
0.086, -1.903e-5, -8.290e-5
0.087, -1.905e-5, -8.306e-5
0.088, -1.895e-5, -8.322e-5
0.089, -1.897e-5, -8.338e-5
0.090, -1.882e-5, -8.353e-5
0.091, -1.884e-5, -8.369e-5
0.092, -1.874e-5, -8.385e-5
0.093, -1.874e-5, -8.400e-5
0.094, -1.862e-5, -8.416e-5
0.095, -1.862e-5, -8.431e-5
0.096, -1.852e-5, -8.447e-5
0.097, -1.851e-5, -8.462e-5
0.098, -1.842e-5, -8.477e-5
0.099, -1.842e-5, -8.493e-5
0.100, -1.828e-5, -8.508e-5
0.101, -1.829e-5, -8.523e-5
0.102, -1.815e-5, -8.538e-5
0.103, -1.817e-5, -8.554e-5
0.104, -1.804e-5, -8.569e-5
0.105, -1.804e-5, -8.584e-5
0.106, -1.795e-5, -8.599e-5
0.107, -1.792e-5, -8.613e-5
0.108, -1.781e-5, -8.628e-5
0.109, -1.780e-5, -8.643e-5
0.110, -1.770e-5, -8.658e-5
0.111, -1.769e-5, -8.673e-5
0.112, -1.756e-5, -8.687e-5
0.113, -1.755e-5, -8.702e-5
0.114, -1.745e-5, -8.716e-5
0.115, -1.743e-5, -8.731e-5
0.116, -1.731e-5, -8.745e-5
0.117, -1.729e-5, -8.760e-5
0.118, -1.716e-5, -8.774e-5
0.119, -1.714e-5, -8.788e-5
0.120, -1.703e-5, -8.803e-5
0.121, -1.701e-5, -8.817e-5
0.122, -1.687e-5, -8.831e-5
0.123, -1.686e-5, -8.845e-5
0.124, -1.674e-5, -8.859e-5
0.125, -1.673e-5, -8.873e-5
0.126, -1.658e-5, -8.887e-5
0.127, -1.656e-5, -8.900e-5
0.128, -1.645e-5, -8.914e-5
0.129, -1.638e-5, -8.928e-5
0.130, -1.628e-5, -8.941e-5
0.131, -1.623e-5, -8.955e-5
0.132, -1.610e-5, -8.968e-5
0.133, -1.606e-5, -8.982e-5
0.134, -1.591e-5, -8.995e-5
0.135, -1.588e-5, -9.008e-5
0.136, -1.575e-5, -9.021e-5
0.137, -1.569e-5, -9.034e-5
0.138, -1.558e-5, -9.047e-5
0.139, -1.553e-5, -9.060e-5
0.140, -1.534e-5, -9.073e-5
0.141, -1.531e-5, -9.086e-5
0.142, -1.512e-5, -9.098e-5
0.143, -1.509e-5, -9.111e-5
0.144, -1.491e-5, -9.123e-5
0.145, -1.487e-5, -9.136e-5
0.146, -1.468e-5, -9.148e-5
0.147, -1.465e-5, -9.160e-5
0.148, -1.445e-5, -9.172e-5
0.149, -1.441e-5, -9.184e-5
0.150, -1.417e-5, -9.196e-5
0.151, -1.414e-5, -9.208e-5
0.152, -1.394e-5, -9.219e-5
0.153, -1.386e-5, -9.231e-5
0.154, -1.367e-5, -9.242e-5
0.155, -1.359e-5, -9.254e-5
0.156, -1.339e-5, -9.265e-5
0.157, -1.331e-5, -9.276e-5
0.158, -1.309e-5, -9.287e-5
0.159, -1.301e-5, -9.298e-5
0.160, -1.275e-5, -9.308e-5
0.161, -1.268e-5, -9.319e-5
0.162, -1.244e-5, -9.329e-5
0.163, -1.234e-5, -9.340e-5
0.164, -1.212e-5, -9.350e-5
0.165, -1.196e-5, -9.360e-5
0.166, -1.175e-5, -9.369e-5
0.167, -1.161e-5, -9.379e-5
0.168, -1.135e-5, -9.389e-5
0.169, -1.121e-5, -9.398e-5
0.170, -1.094e-5, -9.407e-5
0.171, -1.082e-5, -9.416e-5
0.172, -1.052e-5, -9.425e-5
0.173, -1.037e-5, -9.433e-5
0.174, -1.007e-5, -9.442e-5
0.175, -9.911e-6, -9.450e-5
0.176, -9.650e-6, -9.458e-5
0.177, -9.421e-6, -9.466e-5
0.178, -9.155e-6, -9.474e-5
0.179, -8.918e-6, -9.481e-5
0.180, -8.637e-6, -9.488e-5
0.181, -8.396e-6, -9.495e-5
0.182, -8.068e-6, -9.502e-5
0.183, -7.852e-6, -9.509e-5
0.184, -7.485e-6, -9.515e-5
0.185, -7.270e-6, -9.521e-5
0.186, -6.890e-6, -9.527e-5
0.187, -6.643e-6, -9.532e-5
0.188, -6.237e-6, -9.537e-5
0.189, -5.926e-6, -9.542e-5
0.190, -5.566e-6, -9.547e-5
0.191, -5.252e-6, -9.551e-5
0.192, -4.879e-6, -9.555e-5
0.193, -4.576e-6, -9.559e-5
0.194, -4.139e-6, -9.563e-5
0.195, -3.856e-6, -9.566e-5
0.196, -3.387e-6, -9.569e-5
0.197, -3.091e-6, -9.571e-5
0.198, -2.611e-6, -9.573e-5
0.199, -2.249e-6, -9.575e-5
0.200, -1.838e-6, -9.577e-5
0.201, -1.390e-6, -9.578e-5
0.202, -9.917e-7, -9.579e-5
0.203, -5.315e-7, -9.579e-5
0.204, -8.681e-8, -9.579e-5
0.205, 3.269e-7, -9.579e-5
0.206, 9.433e-7, -9.578e-5
0.207, 1.290e-6, -9.577e-5
0.208, 1.933e-6, -9.576e-5
0.209, 2.294e-6, -9.574e-5
0.210, 2.926e-6, -9.571e-5
0.211, 3.321e-6, -9.568e-5
0.212, 3.932e-6, -9.565e-5
0.213, 4.393e-6, -9.561e-5
0.214, 4.996e-6, -9.557e-5
0.215, 5.477e-6, -9.553e-5
0.216, 6.111e-6, -9.548e-5
0.217, 6.558e-6, -9.542e-5
0.218, 7.262e-6, -9.536e-5
0.219, 7.689e-6, -9.530e-5
0.220, 8.442e-6, -9.523e-5
0.221, 8.912e-6, -9.515e-5
0.222, 9.664e-6, -9.507e-5
0.223, 1.017e-5, -9.499e-5
0.224, 1.087e-5, -9.490e-5
0.225, 1.145e-5, -9.480e-5
0.226, 1.213e-5, -9.470e-5
0.227, 1.274e-5, -9.459e-5
0.228, 1.345e-5, -9.448e-5
0.229, 1.402e-5, -9.437e-5
0.230, 1.482e-5, -9.424e-5
0.231, 1.531e-5, -9.411e-5
0.232, 1.618e-5, -9.398e-5
0.233, 1.669e-5, -9.384e-5
0.234, 1.753e-5, -9.369e-5
0.235, 1.812e-5, -9.354e-5
0.236, 1.889e-5, -9.339e-5
0.237, 1.956e-5, -9.322e-5
0.238, 2.030e-5, -9.305e-5
0.239, 2.097e-5, -9.288e-5
0.240, 2.178e-5, -9.270e-5
0.241, 2.238e-5, -9.251e-5
0.242, 2.325e-5, -9.232e-5
0.243, 2.381e-5, -9.212e-5
0.244, 2.479e-5, -9.191e-5
0.245, 2.537e-5, -9.170e-5
0.246, 2.623e-5, -9.148e-5
0.247, 2.688e-5, -9.126e-5
0.248, 2.768e-5, -9.103e-5
0.249, 2.839e-5, -9.079e-5
0.250, 2.917e-5, -9.055e-5
0.251, 2.988e-5, -9.030e-5
0.252, 3.070e-5, -9.004e-5
0.253, 3.134e-5, -8.978e-5
0.254, 3.225e-5, -8.951e-5
0.255, 3.278e-5, -8.924e-5
0.256, 3.374e-5, -8.896e-5
0.257, 3.430e-5, -8.867e-5
0.258, 3.519e-5, -8.838e-5
0.259, 3.584e-5, -8.808e-5
0.260, 3.662e-5, -8.778e-5
0.261, 3.735e-5, -8.746e-5
0.262, 3.808e-5, -8.715e-5
0.263, 3.878e-5, -8.682e-5
0.264, 3.956e-5, -8.649e-5
0.265, 4.021e-5, -8.616e-5
0.266, 4.112e-5, -8.582e-5
0.267, 4.164e-5, -8.547e-5
0.268, 4.251e-5, -8.512e-5
0.269, 4.304e-5, -8.476e-5
0.270, 4.384e-5, -8.439e-5
0.271, 4.444e-5, -8.402e-5
0.272, 4.514e-5, -8.364e-5
0.273, 4.579e-5, -8.326e-5
0.274, 4.646e-5, -8.288e-5
0.275, 4.706e-5, -8.248e-5
0.276, 4.777e-5, -8.209e-5
0.277, 4.830e-5, -8.168e-5
0.278, 4.905e-5, -8.127e-5
0.279, 4.946e-5, -8.086e-5
0.280, 5.023e-5, -8.044e-5
0.281, 5.063e-5, -8.002e-5
0.282, 5.133e-5, -7.959e-5
0.283, 5.179e-5, -7.916e-5
0.284, 5.237e-5, -7.873e-5
0.285, 5.287e-5, -7.829e-5
0.286, 5.339e-5, -7.784e-5
0.287, 5.384e-5, -7.739e-5
0.288, 5.437e-5, -7.694e-5
0.289, 5.473e-5, -7.648e-5
0.290, 5.534e-5, -7.602e-5
0.291, 5.558e-5, -7.556e-5
0.292, 5.622e-5, -7.509e-5
0.293, 5.645e-5, -7.462e-5
0.294, 5.697e-5, -7.414e-5
0.295, 5.721e-5, -7.367e-5
0.296, 5.762e-5, -7.319e-5
0.297, 5.794e-5, -7.270e-5
0.298, 5.829e-5, -7.222e-5
0.299, 5.851e-5, -7.173e-5
0.300, 5.885e-5, -7.124e-5
0.301, 5.902e-5, -7.075e-5
0.302, 5.938e-5, -7.025e-5
0.303, 5.944e-5, -6.976e-5
0.304, 5.982e-5, -6.926e-5
0.305, 5.984e-5, -6.876e-5
0.306, 6.014e-5, -6.826e-5
0.307, 6.020e-5, -6.776e-5
0.308, 6.040e-5, -6.726e-5
0.309, 6.048e-5, -6.675e-5
0.310, 6.058e-5, -6.625e-5
0.311, 6.064e-5, -6.574e-5
0.312, 6.076e-5, -6.524e-5
0.313, 6.071e-5, -6.473e-5
0.314, 6.085e-5, -6.422e-5
0.315, 6.073e-5, -6.372e-5
0.316, 6.083e-5, -6.321e-5
0.317, 6.069e-5, -6.270e-5
0.318, 6.078e-5, -6.220e-5
0.319, 6.061e-5, -6.169e-5
0.320, 6.058e-5, -6.119e-5
0.321, 6.050e-5, -6.068e-5
0.322, 6.040e-5, -6.018e-5
0.323, 6.028e-5, -5.968e-5
0.324, 6.021e-5, -5.918e-5
0.325, 5.999e-5, -5.868e-5
0.326, 5.993e-5, -5.818e-5
0.327, 5.963e-5, -5.768e-5
0.328, 5.960e-5, -5.718e-5
0.329, 5.929e-5, -5.669e-5
0.330, 5.923e-5, -5.620e-5
0.331, 5.891e-5, -5.570e-5
0.332, 5.873e-5, -5.521e-5
0.333, 5.848e-5, -5.473e-5
0.334, 5.831e-5, -5.424e-5
0.335, 5.799e-5, -5.376e-5
0.336, 5.782e-5, -5.328e-5
0.337, 5.745e-5, -5.280e-5
0.338, 5.734e-5, -5.232e-5
0.339, 5.692e-5, -5.185e-5
0.340, 5.678e-5, -5.137e-5
0.341, 5.637e-5, -5.090e-5
0.342, 5.622e-5, -5.043e-5
0.343, 5.576e-5, -4.997e-5
0.344, 5.552e-5, -4.951e-5
0.345, 5.518e-5, -4.905e-5
0.346, 5.494e-5, -4.859e-5
0.347, 5.457e-5, -4.813e-5
0.348, 5.432e-5, -4.768e-5
0.349, 5.394e-5, -4.723e-5
0.350, 5.373e-5, -4.678e-5
0.351, 5.329e-5, -4.634e-5
0.352, 5.311e-5, -4.590e-5
0.353, 5.269e-5, -4.546e-5
0.354, 5.249e-5, -4.502e-5
0.355, 5.207e-5, -4.459e-5
0.356, 5.183e-5, -4.416e-5
0.357, 5.145e-5, -4.373e-5
0.358, 5.120e-5, -4.330e-5
0.359, 5.083e-5, -4.288e-5
0.360, 5.058e-5, -4.245e-5
0.361, 5.018e-5, -4.204e-5
0.362, 4.999e-5, -4.162e-5
0.363, 4.956e-5, -4.121e-5
0.364, 4.939e-5, -4.080e-5
0.365, 4.896e-5, -4.039e-5
0.366, 4.876e-5, -3.998e-5
0.367, 4.835e-5, -3.958e-5
0.368, 4.816e-5, -3.918e-5
0.369, 4.775e-5, -3.878e-5
0.370, 4.755e-5, -3.838e-5
0.371, 4.717e-5, -3.799e-5
0.372, 4.693e-5, -3.760e-5
0.373, 4.657e-5, -3.721e-5
0.374, 4.638e-5, -3.682e-5
0.375, 4.599e-5, -3.644e-5
0.376, 4.582e-5, -3.606e-5
0.377, 4.544e-5, -3.568e-5
0.378, 4.527e-5, -3.530e-5
0.379, 4.490e-5, -3.493e-5
0.380, 4.472e-5, -3.456e-5
0.381, 4.438e-5, -3.419e-5
0.382, 4.420e-5, -3.382e-5
0.383, 4.384e-5, -3.345e-5
0.384, 4.369e-5, -3.309e-5
0.385, 4.331e-5, -3.273e-5
0.386, 4.317e-5, -3.237e-5
0.387, 4.281e-5, -3.201e-5
0.388, 4.269e-5, -3.166e-5
0.389, 4.231e-5, -3.130e-5
0.390, 4.220e-5, -3.095e-5
0.391, 4.184e-5, -3.060e-5
0.392, 4.173e-5, -3.025e-5
0.393, 4.137e-5, -2.991e-5
0.394, 4.124e-5, -2.957e-5
0.395, 4.092e-5, -2.923e-5
0.396, 4.079e-5, -2.889e-5
0.397, 4.047e-5, -2.855e-5
0.398, 4.034e-5, -2.821e-5
0.399, 3.997e-5, -2.788e-5
0.400, 3.986e-5, -2.755e-5
0.401, 3.955e-5, -2.722e-5
0.402, 3.944e-5, -2.689e-5
0.403, 3.912e-5, -2.656e-5
0.404, 3.900e-5, -2.624e-5
0.405, 3.872e-5, -2.591e-5
0.406, 3.860e-5, -2.559e-5
0.407, 3.833e-5, -2.527e-5
0.408, 3.821e-5, -2.496e-5
0.409, 3.793e-5, -2.464e-5
0.410, 3.784e-5, -2.432e-5
0.411, 3.755e-5, -2.401e-5
0.412, 3.747e-5, -2.370e-5
0.413, 3.718e-5, -2.339e-5
0.414, 3.710e-5, -2.308e-5
0.415, 3.682e-5, -2.277e-5
0.416, 3.674e-5, -2.247e-5
0.417, 3.646e-5, -2.216e-5
0.418, 3.640e-5, -2.186e-5
0.419, 3.614e-5, -2.156e-5
0.420, 3.604e-5, -2.126e-5
0.421, 3.578e-5, -2.096e-5
0.422, 3.571e-5, -2.066e-5
0.423, 3.545e-5, -2.037e-5
0.424, 3.542e-5, -2.007e-5
0.425, 3.514e-5, -1.978e-5
0.426, 3.508e-5, -1.949e-5
0.427, 3.481e-5, -1.920e-5
0.428, 3.475e-5, -1.891e-5
0.429, 3.450e-5, -1.862e-5
0.430, 3.446e-5, -1.833e-5
0.431, 3.421e-5, -1.805e-5
0.432, 3.416e-5, -1.776e-5
0.433, 3.393e-5, -1.748e-5
0.434, 3.388e-5, -1.720e-5
0.435, 3.362e-5, -1.692e-5
0.436, 3.360e-5, -1.664e-5
0.437, 3.336e-5, -1.636e-5
0.438, 3.333e-5, -1.608e-5
0.439, 3.306e-5, -1.581e-5
0.440, 3.303e-5, -1.553e-5
0.441, 3.279e-5, -1.526e-5
0.442, 3.277e-5, -1.498e-5
0.443, 3.253e-5, -1.471e-5
0.444, 3.252e-5, -1.444e-5
0.445, 3.229e-5, -1.417e-5
0.446, 3.227e-5, -1.390e-5
0.447, 3.205e-5, -1.364e-5
0.448, 3.204e-5, -1.337e-5
0.449, 3.180e-5, -1.310e-5
0.450, 3.181e-5, -1.284e-5
0.451, 3.156e-5, -1.258e-5
0.452, 3.156e-5, -1.231e-5
0.453, 3.134e-5, -1.205e-5
0.454, 3.129e-5, -1.179e-5
0.455, 3.109e-5, -1.153e-5
0.456, 3.105e-5, -1.127e-5
0.457, 3.087e-5, -1.102e-5
0.458, 3.084e-5, -1.076e-5
0.459, 3.064e-5, -1.050e-5
0.460, 3.062e-5, -1.025e-5
0.461, 3.043e-5, -9.996e-6
0.462, 3.042e-5, -9.742e-6
0.463, 3.022e-5, -9.490e-6
0.464, 3.020e-5, -9.239e-6
0.465, 3.002e-5, -8.989e-6
0.466, 3.001e-5, -8.739e-6
0.467, 2.981e-5, -8.490e-6
0.468, 2.980e-5, -8.242e-6
0.469, 2.960e-5, -7.995e-6
0.470, 2.959e-5, -7.749e-6
0.471, 2.941e-5, -7.503e-6
0.472, 2.939e-5, -7.259e-6
0.473, 2.920e-5, -7.015e-6
0.474, 2.920e-5, -6.772e-6
0.475, 2.902e-5, -6.530e-6
0.476, 2.904e-5, -6.288e-6
0.477, 2.884e-5, -6.048e-6
0.478, 2.884e-5, -5.807e-6
0.479, 2.864e-5, -5.569e-6
0.480, 2.864e-5, -5.330e-6
0.481, 2.847e-5, -5.093e-6
0.482, 2.848e-5, -4.855e-6
0.483, 2.830e-5, -4.620e-6
0.484, 2.831e-5, -4.384e-6
0.485, 2.811e-5, -4.149e-6
0.486, 2.813e-5, -3.915e-6
0.487, 2.793e-5, -3.682e-6
0.488, 2.797e-5, -3.449e-6
0.489, 2.779e-5, -3.217e-6
0.490, 2.780e-5, -2.986e-6
0.491, 2.763e-5, -2.756e-6
0.492, 2.763e-5, -2.525e-6
0.493, 2.746e-5, -2.296e-6
0.494, 2.745e-5, -2.068e-6
0.495, 2.730e-5, -1.840e-6
0.496, 2.732e-5, -1.613e-6
0.497, 2.714e-5, -1.386e-6
0.498, 2.716e-5, -1.160e-6
0.499, 2.697e-5, -9.353e-7
0.500, 2.688e-5, -7.113e-7
