Mar. 30, 2023   16:55:55
Cyclic Voltammetry
File: 10mmol20mvs
Data Source:  Experiment
Instrument Model:  CHI600B
Header: 
Note: 

Init E (V) = 0.268
High E (V) = 0.5
Low E (V) = 0
Init P/N = N
Scan Rate (V/s) = 0.02
Segment = 4
Sample Interval (V) = 0.001
Quiet Time (sec) = 2
Sensitivity (A/V) = 2e-5

Segment 1:

Segment 2:
Ep = 0.301V
ip = 3.197e-5A
Ah = 1.102e-4C

Segment 3:
Ep = 0.215V
ip = -3.045e-5A
Ah = -1.073e-4C

Segment 4:

Potential/V, Current/A, Charge/C

Segment 1:
0.267, 2.143e-6, 1.072e-7
0.266, 6.716e-7, 1.407e-7
0.265, -5.614e-7, 1.127e-7
0.264, -1.606e-6, 3.236e-8
0.263, -2.565e-6, -9.588e-8
0.262, -3.445e-6, -2.681e-7
0.261, -4.254e-6, -4.808e-7
0.260, -5.015e-6, -7.316e-7
0.259, -5.720e-6, -1.018e-6
0.258, -6.414e-6, -1.338e-6
0.257, -7.068e-6, -1.692e-6
0.256, -7.698e-6, -2.077e-6
0.255, -8.309e-6, -2.492e-6
0.254, -8.898e-6, -2.937e-6
0.253, -9.458e-6, -3.410e-6
0.252, -9.992e-6, -3.910e-6
0.251, -1.051e-5, -4.435e-6
0.250, -1.102e-5, -4.986e-6
0.249, -1.150e-5, -5.561e-6
0.248, -1.196e-5, -6.158e-6
0.247, -1.242e-5, -6.779e-6
0.246, -1.285e-5, -7.422e-6
0.245, -1.327e-5, -8.085e-6
0.244, -1.367e-5, -8.769e-6
0.243, -1.408e-5, -9.473e-6
0.242, -1.446e-5, -1.020e-5
0.241, -1.482e-5, -1.094e-5
0.240, -1.519e-5, -1.170e-5
0.239, -1.553e-5, -1.247e-5
0.238, -1.585e-5, -1.327e-5
0.237, -1.617e-5, -1.407e-5
0.236, -1.647e-5, -1.490e-5
0.235, -1.675e-5, -1.573e-5
0.234, -1.703e-5, -1.659e-5
0.233, -1.728e-5, -1.745e-5
0.232, -1.754e-5, -1.833e-5
0.231, -1.776e-5, -1.922e-5
0.230, -1.797e-5, -2.011e-5
0.229, -1.818e-5, -2.102e-5
0.228, -1.840e-5, -2.194e-5
0.227, -1.859e-5, -2.287e-5
0.226, -1.877e-5, -2.381e-5
0.225, -1.893e-5, -2.476e-5
0.224, -1.908e-5, -2.571e-5
0.223, -1.921e-5, -2.667e-5
0.222, -1.934e-5, -2.764e-5
0.221, -1.948e-5, -2.861e-5
0.220, -1.958e-5, -2.959e-5
0.219, -1.967e-5, -3.058e-5
0.218, -1.977e-5, -3.156e-5
0.217, -1.984e-5, -3.256e-5
0.216, -1.991e-5, -3.355e-5
0.215, -1.997e-5, -3.455e-5
0.214, -2.002e-5, -3.555e-5
0.213, -2.006e-5, -3.655e-5
0.212, -2.009e-5, -3.756e-5
0.211, -2.012e-5, -3.856e-5
0.210, -2.014e-5, -3.957e-5
0.209, -2.014e-5, -4.058e-5
0.208, -2.015e-5, -4.159e-5
0.207, -2.013e-5, -4.259e-5
0.206, -2.012e-5, -4.360e-5
0.205, -2.009e-5, -4.460e-5
0.204, -2.006e-5, -4.561e-5
0.203, -2.003e-5, -4.661e-5
0.202, -2.001e-5, -4.761e-5
0.201, -1.996e-5, -4.861e-5
0.200, -1.992e-5, -4.960e-5
0.199, -1.987e-5, -5.060e-5
0.198, -1.981e-5, -5.159e-5
0.197, -1.975e-5, -5.257e-5
0.196, -1.968e-5, -5.356e-5
0.195, -1.961e-5, -5.454e-5
0.194, -1.954e-5, -5.551e-5
0.193, -1.946e-5, -5.649e-5
0.192, -1.939e-5, -5.746e-5
0.191, -1.931e-5, -5.842e-5
0.190, -1.922e-5, -5.938e-5
0.189, -1.914e-5, -6.034e-5
0.188, -1.905e-5, -6.129e-5
0.187, -1.896e-5, -6.224e-5
0.186, -1.886e-5, -6.318e-5
0.185, -1.877e-5, -6.412e-5
0.184, -1.868e-5, -6.506e-5
0.183, -1.857e-5, -6.598e-5
0.182, -1.847e-5, -6.691e-5
0.181, -1.837e-5, -6.783e-5
0.180, -1.827e-5, -6.874e-5
0.179, -1.817e-5, -6.965e-5
0.178, -1.806e-5, -7.055e-5
0.177, -1.796e-5, -7.145e-5
0.176, -1.785e-5, -7.234e-5
0.175, -1.775e-5, -7.323e-5
0.174, -1.765e-5, -7.411e-5
0.173, -1.754e-5, -7.499e-5
0.172, -1.744e-5, -7.586e-5
0.171, -1.733e-5, -7.673e-5
0.170, -1.723e-5, -7.759e-5
0.169, -1.713e-5, -7.845e-5
0.168, -1.702e-5, -7.930e-5
0.167, -1.692e-5, -8.014e-5
0.166, -1.682e-5, -8.098e-5
0.165, -1.672e-5, -8.182e-5
0.164, -1.661e-5, -8.265e-5
0.163, -1.652e-5, -8.348e-5
0.162, -1.642e-5, -8.430e-5
0.161, -1.632e-5, -8.511e-5
0.160, -1.622e-5, -8.592e-5
0.159, -1.612e-5, -8.673e-5
0.158, -1.603e-5, -8.753e-5
0.157, -1.593e-5, -8.833e-5
0.156, -1.583e-5, -8.912e-5
0.155, -1.574e-5, -8.991e-5
0.154, -1.565e-5, -9.069e-5
0.153, -1.555e-5, -9.147e-5
0.152, -1.546e-5, -9.224e-5
0.151, -1.537e-5, -9.301e-5
0.150, -1.528e-5, -9.377e-5
0.149, -1.519e-5, -9.453e-5
0.148, -1.508e-5, -9.529e-5
0.147, -1.499e-5, -9.604e-5
0.146, -1.491e-5, -9.678e-5
0.145, -1.482e-5, -9.752e-5
0.144, -1.474e-5, -9.826e-5
0.143, -1.465e-5, -9.899e-5
0.142, -1.457e-5, -9.972e-5
0.141, -1.449e-5, -1.004e-4
0.140, -1.442e-5, -1.012e-4
0.139, -1.433e-5, -1.019e-4
0.138, -1.425e-5, -1.026e-4
0.137, -1.418e-5, -1.033e-4
0.136, -1.410e-5, -1.040e-4
0.135, -1.403e-5, -1.047e-4
0.134, -1.395e-5, -1.054e-4
0.133, -1.388e-5, -1.061e-4
0.132, -1.381e-5, -1.068e-4
0.131, -1.373e-5, -1.075e-4
0.130, -1.367e-5, -1.082e-4
0.129, -1.360e-5, -1.088e-4
0.128, -1.352e-5, -1.095e-4
0.127, -1.346e-5, -1.102e-4
0.126, -1.339e-5, -1.109e-4
0.125, -1.333e-5, -1.115e-4
0.124, -1.326e-5, -1.122e-4
0.123, -1.320e-5, -1.128e-4
0.122, -1.313e-5, -1.135e-4
0.121, -1.307e-5, -1.142e-4
0.120, -1.301e-5, -1.148e-4
0.119, -1.295e-5, -1.155e-4
0.118, -1.289e-5, -1.161e-4
0.117, -1.283e-5, -1.167e-4
0.116, -1.277e-5, -1.174e-4
0.115, -1.271e-5, -1.180e-4
0.114, -1.265e-5, -1.186e-4
0.113, -1.260e-5, -1.193e-4
0.112, -1.254e-5, -1.199e-4
0.111, -1.249e-5, -1.205e-4
0.110, -1.243e-5, -1.212e-4
0.109, -1.237e-5, -1.218e-4
0.108, -1.232e-5, -1.224e-4
0.107, -1.227e-5, -1.230e-4
0.106, -1.222e-5, -1.236e-4
0.105, -1.217e-5, -1.242e-4
0.104, -1.212e-5, -1.248e-4
0.103, -1.207e-5, -1.254e-4
0.102, -1.202e-5, -1.260e-4
0.101, -1.198e-5, -1.266e-4
0.100, -1.193e-5, -1.272e-4
0.099, -1.189e-5, -1.278e-4
0.098, -1.184e-5, -1.284e-4
0.097, -1.180e-5, -1.290e-4
0.096, -1.175e-5, -1.296e-4
0.095, -1.170e-5, -1.302e-4
0.094, -1.166e-5, -1.308e-4
0.093, -1.161e-5, -1.313e-4
0.092, -1.157e-5, -1.319e-4
0.091, -1.153e-5, -1.325e-4
0.090, -1.149e-5, -1.331e-4
0.089, -1.145e-5, -1.336e-4
0.088, -1.141e-5, -1.342e-4
0.087, -1.137e-5, -1.348e-4
0.086, -1.133e-5, -1.353e-4
0.085, -1.129e-5, -1.359e-4
0.084, -1.125e-5, -1.365e-4
0.083, -1.121e-5, -1.370e-4
0.082, -1.117e-5, -1.376e-4
0.081, -1.113e-5, -1.381e-4
0.080, -1.109e-5, -1.387e-4
0.079, -1.105e-5, -1.393e-4
0.078, -1.102e-5, -1.398e-4
0.077, -1.098e-5, -1.404e-4
0.076, -1.095e-5, -1.409e-4
0.075, -1.091e-5, -1.414e-4
0.074, -1.088e-5, -1.420e-4
0.073, -1.084e-5, -1.425e-4
0.072, -1.081e-5, -1.431e-4
0.071, -1.077e-5, -1.436e-4
0.070, -1.074e-5, -1.441e-4
0.069, -1.071e-5, -1.447e-4
0.068, -1.068e-5, -1.452e-4
0.067, -1.064e-5, -1.458e-4
0.066, -1.061e-5, -1.463e-4
0.065, -1.058e-5, -1.468e-4
0.064, -1.055e-5, -1.473e-4
0.063, -1.052e-5, -1.479e-4
0.062, -1.049e-5, -1.484e-4
0.061, -1.045e-5, -1.489e-4
0.060, -1.042e-5, -1.494e-4
0.059, -1.039e-5, -1.500e-4
0.058, -1.036e-5, -1.505e-4
0.057, -1.033e-5, -1.510e-4
0.056, -1.031e-5, -1.515e-4
0.055, -1.028e-5, -1.520e-4
0.054, -1.025e-5, -1.525e-4
0.053, -1.022e-5, -1.530e-4
0.052, -1.020e-5, -1.535e-4
0.051, -1.017e-5, -1.541e-4
0.050, -1.014e-5, -1.546e-4
0.049, -1.011e-5, -1.551e-4
0.048, -1.009e-5, -1.556e-4
0.047, -1.006e-5, -1.561e-4
0.046, -1.003e-5, -1.566e-4
0.045, -1.001e-5, -1.571e-4
0.044, -9.980e-6, -1.576e-4
0.043, -9.956e-6, -1.581e-4
0.042, -9.933e-6, -1.586e-4
0.041, -9.909e-6, -1.591e-4
0.040, -9.883e-6, -1.596e-4
0.039, -9.858e-6, -1.601e-4
0.038, -9.836e-6, -1.605e-4
0.037, -9.813e-6, -1.610e-4
0.036, -9.788e-6, -1.615e-4
0.035, -9.765e-6, -1.620e-4
0.034, -9.744e-6, -1.625e-4
0.033, -9.721e-6, -1.630e-4
0.032, -9.698e-6, -1.635e-4
0.031, -9.674e-6, -1.640e-4
0.030, -9.652e-6, -1.644e-4
0.029, -9.629e-6, -1.649e-4
0.028, -9.607e-6, -1.654e-4
0.027, -9.584e-6, -1.659e-4
0.026, -9.562e-6, -1.664e-4
0.025, -9.543e-6, -1.668e-4
0.024, -9.523e-6, -1.673e-4
0.023, -9.500e-6, -1.678e-4
0.022, -9.478e-6, -1.683e-4
0.021, -9.459e-6, -1.687e-4
0.020, -9.440e-6, -1.692e-4
0.019, -9.418e-6, -1.697e-4
0.018, -9.398e-6, -1.701e-4
0.017, -9.378e-6, -1.706e-4
0.016, -9.360e-6, -1.711e-4
0.015, -9.341e-6, -1.716e-4
0.014, -9.321e-6, -1.720e-4
0.013, -9.300e-6, -1.725e-4
0.012, -9.280e-6, -1.729e-4
0.011, -9.259e-6, -1.734e-4
0.010, -9.239e-6, -1.739e-4
0.009, -9.221e-6, -1.743e-4
0.008, -9.201e-6, -1.748e-4
0.007, -9.183e-6, -1.753e-4
0.006, -9.165e-6, -1.757e-4
0.005, -9.148e-6, -1.762e-4
0.004, -9.131e-6, -1.766e-4
0.003, -9.111e-6, -1.771e-4
0.002, -9.093e-6, -1.775e-4
0.001, -9.076e-6, -1.780e-4
-0.000, -9.037e-6, -1.784e-4

Segment 2:
0.001, -8.988e-6, -1.789e-4
0.002, -8.959e-6, -1.793e-4
0.003, -8.932e-6, -1.798e-4
0.004, -8.904e-6, -1.802e-4
0.005, -8.873e-6, -1.807e-4
0.006, -8.845e-6, -1.811e-4
0.007, -8.819e-6, -1.816e-4
0.008, -8.796e-6, -1.820e-4
0.009, -8.775e-6, -1.824e-4
0.010, -8.755e-6, -1.829e-4
0.011, -8.735e-6, -1.833e-4
0.012, -8.712e-6, -1.837e-4
0.013, -8.691e-6, -1.842e-4
0.014, -8.672e-6, -1.846e-4
0.015, -8.654e-6, -1.850e-4
0.016, -8.636e-6, -1.855e-4
0.017, -8.617e-6, -1.859e-4
0.018, -8.599e-6, -1.863e-4
0.019, -8.581e-6, -1.868e-4
0.020, -8.563e-6, -1.872e-4
0.021, -8.544e-6, -1.876e-4
0.022, -8.524e-6, -1.880e-4
0.023, -8.505e-6, -1.885e-4
0.024, -8.487e-6, -1.889e-4
0.025, -8.470e-6, -1.893e-4
0.026, -8.451e-6, -1.897e-4
0.027, -8.432e-6, -1.902e-4
0.028, -8.414e-6, -1.906e-4
0.029, -8.398e-6, -1.910e-4
0.030, -8.381e-6, -1.914e-4
0.031, -8.363e-6, -1.918e-4
0.032, -8.346e-6, -1.923e-4
0.033, -8.329e-6, -1.927e-4
0.034, -8.314e-6, -1.931e-4
0.035, -8.296e-6, -1.935e-4
0.036, -8.283e-6, -1.939e-4
0.037, -8.267e-6, -1.943e-4
0.038, -8.250e-6, -1.947e-4
0.039, -8.234e-6, -1.952e-4
0.040, -8.218e-6, -1.956e-4
0.041, -8.205e-6, -1.960e-4
0.042, -8.189e-6, -1.964e-4
0.043, -8.175e-6, -1.968e-4
0.044, -8.161e-6, -1.972e-4
0.045, -8.144e-6, -1.976e-4
0.046, -8.125e-6, -1.980e-4
0.047, -8.109e-6, -1.984e-4
0.048, -8.094e-6, -1.988e-4
0.049, -8.077e-6, -1.992e-4
0.050, -8.061e-6, -1.996e-4
0.051, -8.045e-6, -2.000e-4
0.052, -8.030e-6, -2.004e-4
0.053, -8.014e-6, -2.008e-4
0.054, -8.000e-6, -2.012e-4
0.055, -7.987e-6, -2.016e-4
0.056, -7.971e-6, -2.020e-4
0.057, -7.956e-6, -2.024e-4
0.058, -7.940e-6, -2.028e-4
0.059, -7.925e-6, -2.032e-4
0.060, -7.910e-6, -2.036e-4
0.061, -7.896e-6, -2.040e-4
0.062, -7.882e-6, -2.044e-4
0.063, -7.866e-6, -2.048e-4
0.064, -7.852e-6, -2.052e-4
0.065, -7.836e-6, -2.056e-4
0.066, -7.823e-6, -2.060e-4
0.067, -7.809e-6, -2.064e-4
0.068, -7.796e-6, -2.068e-4
0.069, -7.783e-6, -2.072e-4
0.070, -7.767e-6, -2.075e-4
0.071, -7.750e-6, -2.079e-4
0.072, -7.735e-6, -2.083e-4
0.073, -7.717e-6, -2.087e-4
0.074, -7.703e-6, -2.091e-4
0.075, -7.687e-6, -2.095e-4
0.076, -7.670e-6, -2.099e-4
0.077, -7.655e-6, -2.102e-4
0.078, -7.639e-6, -2.106e-4
0.079, -7.623e-6, -2.110e-4
0.080, -7.608e-6, -2.114e-4
0.081, -7.592e-6, -2.118e-4
0.082, -7.576e-6, -2.121e-4
0.083, -7.562e-6, -2.125e-4
0.084, -7.546e-6, -2.129e-4
0.085, -7.529e-6, -2.133e-4
0.086, -7.514e-6, -2.136e-4
0.087, -7.499e-6, -2.140e-4
0.088, -7.483e-6, -2.144e-4
0.089, -7.468e-6, -2.148e-4
0.090, -7.453e-6, -2.151e-4
0.091, -7.437e-6, -2.155e-4
0.092, -7.420e-6, -2.159e-4
0.093, -7.405e-6, -2.163e-4
0.094, -7.390e-6, -2.166e-4
0.095, -7.374e-6, -2.170e-4
0.096, -7.357e-6, -2.174e-4
0.097, -7.337e-6, -2.177e-4
0.098, -7.319e-6, -2.181e-4
0.099, -7.302e-6, -2.185e-4
0.100, -7.283e-6, -2.188e-4
0.101, -7.265e-6, -2.192e-4
0.102, -7.245e-6, -2.195e-4
0.103, -7.227e-6, -2.199e-4
0.104, -7.211e-6, -2.203e-4
0.105, -7.193e-6, -2.206e-4
0.106, -7.174e-6, -2.210e-4
0.107, -7.154e-6, -2.213e-4
0.108, -7.134e-6, -2.217e-4
0.109, -7.114e-6, -2.221e-4
0.110, -7.097e-6, -2.224e-4
0.111, -7.077e-6, -2.228e-4
0.112, -7.056e-6, -2.231e-4
0.113, -7.035e-6, -2.235e-4
0.114, -7.016e-6, -2.238e-4
0.115, -6.995e-6, -2.242e-4
0.116, -6.971e-6, -2.245e-4
0.117, -6.947e-6, -2.249e-4
0.118, -6.923e-6, -2.252e-4
0.119, -6.901e-6, -2.256e-4
0.120, -6.879e-6, -2.259e-4
0.121, -6.852e-6, -2.262e-4
0.122, -6.829e-6, -2.266e-4
0.123, -6.805e-6, -2.269e-4
0.124, -6.780e-6, -2.273e-4
0.125, -6.752e-6, -2.276e-4
0.126, -6.727e-6, -2.279e-4
0.127, -6.700e-6, -2.283e-4
0.128, -6.673e-6, -2.286e-4
0.129, -6.645e-6, -2.289e-4
0.130, -6.618e-6, -2.293e-4
0.131, -6.589e-6, -2.296e-4
0.132, -6.556e-6, -2.299e-4
0.133, -6.525e-6, -2.303e-4
0.134, -6.491e-6, -2.306e-4
0.135, -6.457e-6, -2.309e-4
0.136, -6.426e-6, -2.312e-4
0.137, -6.390e-6, -2.315e-4
0.138, -6.355e-6, -2.319e-4
0.139, -6.320e-6, -2.322e-4
0.140, -6.284e-6, -2.325e-4
0.141, -6.248e-6, -2.328e-4
0.142, -6.211e-6, -2.331e-4
0.143, -6.167e-6, -2.334e-4
0.144, -6.123e-6, -2.337e-4
0.145, -6.078e-6, -2.340e-4
0.146, -6.034e-6, -2.343e-4
0.147, -5.990e-6, -2.346e-4
0.148, -5.944e-6, -2.349e-4
0.149, -5.899e-6, -2.352e-4
0.150, -5.852e-6, -2.355e-4
0.151, -5.803e-6, -2.358e-4
0.152, -5.744e-6, -2.361e-4
0.153, -5.689e-6, -2.364e-4
0.154, -5.634e-6, -2.367e-4
0.155, -5.577e-6, -2.369e-4
0.156, -5.519e-6, -2.372e-4
0.157, -5.462e-6, -2.375e-4
0.158, -5.399e-6, -2.378e-4
0.159, -5.335e-6, -2.380e-4
0.160, -5.268e-6, -2.383e-4
0.161, -5.200e-6, -2.386e-4
0.162, -5.134e-6, -2.388e-4
0.163, -5.064e-6, -2.391e-4
0.164, -4.994e-6, -2.393e-4
0.165, -4.914e-6, -2.396e-4
0.166, -4.837e-6, -2.398e-4
0.167, -4.760e-6, -2.400e-4
0.168, -4.682e-6, -2.403e-4
0.169, -4.591e-6, -2.405e-4
0.170, -4.499e-6, -2.407e-4
0.171, -4.411e-6, -2.409e-4
0.172, -4.321e-6, -2.412e-4
0.173, -4.225e-6, -2.414e-4
0.174, -4.120e-6, -2.416e-4
0.175, -4.024e-6, -2.418e-4
0.176, -3.919e-6, -2.420e-4
0.177, -3.815e-6, -2.422e-4
0.178, -3.701e-6, -2.424e-4
0.179, -3.589e-6, -2.425e-4
0.180, -3.476e-6, -2.427e-4
0.181, -3.351e-6, -2.429e-4
0.182, -3.226e-6, -2.430e-4
0.183, -3.100e-6, -2.432e-4
0.184, -2.962e-6, -2.433e-4
0.185, -2.830e-6, -2.435e-4
0.186, -2.689e-6, -2.436e-4
0.187, -2.522e-6, -2.437e-4
0.188, -2.377e-6, -2.439e-4
0.189, -2.222e-6, -2.440e-4
0.190, -2.071e-6, -2.441e-4
0.191, -1.914e-6, -2.442e-4
0.192, -1.744e-6, -2.443e-4
0.193, -1.582e-6, -2.443e-4
0.194, -1.409e-6, -2.444e-4
0.195, -1.228e-6, -2.445e-4
0.196, -1.047e-6, -2.445e-4
0.197, -8.615e-7, -2.446e-4
0.198, -6.698e-7, -2.446e-4
0.199, -4.698e-7, -2.446e-4
0.200, -2.649e-7, -2.446e-4
0.201, -6.579e-8, -2.446e-4
0.202, 1.744e-7, -2.446e-4
0.203, 3.934e-7, -2.446e-4
0.204, 6.247e-7, -2.446e-4
0.205, 8.284e-7, -2.445e-4
0.206, 1.063e-6, -2.445e-4
0.207, 1.296e-6, -2.444e-4
0.208, 1.552e-6, -2.443e-4
0.209, 1.793e-6, -2.442e-4
0.210, 2.053e-6, -2.441e-4
0.211, 2.315e-6, -2.440e-4
0.212, 2.579e-6, -2.439e-4
0.213, 2.839e-6, -2.438e-4
0.214, 3.117e-6, -2.436e-4
0.215, 3.394e-6, -2.434e-4
0.216, 3.706e-6, -2.432e-4
0.217, 3.995e-6, -2.430e-4
0.218, 4.283e-6, -2.428e-4
0.219, 4.588e-6, -2.426e-4
0.220, 4.900e-6, -2.424e-4
0.221, 5.203e-6, -2.421e-4
0.222, 5.513e-6, -2.418e-4
0.223, 5.837e-6, -2.415e-4
0.224, 6.154e-6, -2.412e-4
0.225, 6.494e-6, -2.409e-4
0.226, 6.831e-6, -2.406e-4
0.227, 7.172e-6, -2.402e-4
0.228, 7.511e-6, -2.398e-4
0.229, 7.848e-6, -2.394e-4
0.230, 8.212e-6, -2.390e-4
0.231, 8.566e-6, -2.386e-4
0.232, 8.914e-6, -2.381e-4
0.233, 9.281e-6, -2.377e-4
0.234, 9.646e-6, -2.372e-4
0.235, 1.003e-5, -2.367e-4
0.236, 1.041e-5, -2.362e-4
0.237, 1.078e-5, -2.356e-4
0.238, 1.116e-5, -2.351e-4
0.239, 1.153e-5, -2.345e-4
0.240, 1.192e-5, -2.339e-4
0.241, 1.230e-5, -2.333e-4
0.242, 1.268e-5, -2.327e-4
0.243, 1.305e-5, -2.320e-4
0.244, 1.345e-5, -2.313e-4
0.245, 1.383e-5, -2.306e-4
0.246, 1.422e-5, -2.299e-4
0.247, 1.461e-5, -2.292e-4
0.248, 1.499e-5, -2.285e-4
0.249, 1.538e-5, -2.277e-4
0.250, 1.576e-5, -2.269e-4
0.251, 1.616e-5, -2.261e-4
0.252, 1.654e-5, -2.253e-4
0.253, 1.691e-5, -2.244e-4
0.254, 1.730e-5, -2.235e-4
0.255, 1.768e-5, -2.227e-4
0.256, 1.807e-5, -2.218e-4
0.257, 1.843e-5, -2.208e-4
0.258, 1.880e-5, -2.199e-4
0.259, 1.917e-5, -2.189e-4
0.260, 1.954e-5, -2.180e-4
0.261, 1.988e-5, -2.170e-4
0.262, 2.024e-5, -2.160e-4
0.263, 2.060e-5, -2.149e-4
0.264, 2.091e-5, -2.139e-4
0.265, 2.126e-5, -2.128e-4
0.266, 2.157e-5, -2.117e-4
0.267, 2.189e-5, -2.106e-4
0.268, 2.222e-5, -2.095e-4
0.269, 2.255e-5, -2.084e-4
0.270, 2.285e-5, -2.073e-4
0.271, 2.314e-5, -2.061e-4
0.272, 2.343e-5, -2.049e-4
0.273, 2.371e-5, -2.038e-4
0.274, 2.398e-5, -2.026e-4
0.275, 2.424e-5, -2.013e-4
0.276, 2.449e-5, -2.001e-4
0.277, 2.473e-5, -1.989e-4
0.278, 2.497e-5, -1.976e-4
0.279, 2.521e-5, -1.964e-4
0.280, 2.543e-5, -1.951e-4
0.281, 2.563e-5, -1.938e-4
0.282, 2.582e-5, -1.925e-4
0.283, 2.602e-5, -1.912e-4
0.284, 2.620e-5, -1.899e-4
0.285, 2.637e-5, -1.886e-4
0.286, 2.652e-5, -1.873e-4
0.287, 2.666e-5, -1.859e-4
0.288, 2.681e-5, -1.846e-4
0.289, 2.693e-5, -1.833e-4
0.290, 2.705e-5, -1.819e-4
0.291, 2.715e-5, -1.805e-4
0.292, 2.725e-5, -1.792e-4
0.293, 2.734e-5, -1.778e-4
0.294, 2.742e-5, -1.764e-4
0.295, 2.748e-5, -1.751e-4
0.296, 2.755e-5, -1.737e-4
0.297, 2.760e-5, -1.723e-4
0.298, 2.763e-5, -1.709e-4
0.299, 2.766e-5, -1.695e-4
0.300, 2.768e-5, -1.682e-4
0.301, 2.770e-5, -1.668e-4
0.302, 2.769e-5, -1.654e-4
0.303, 2.768e-5, -1.640e-4
0.304, 2.768e-5, -1.626e-4
0.305, 2.766e-5, -1.612e-4
0.306, 2.762e-5, -1.599e-4
0.307, 2.761e-5, -1.585e-4
0.308, 2.756e-5, -1.571e-4
0.309, 2.750e-5, -1.557e-4
0.310, 2.744e-5, -1.544e-4
0.311, 2.738e-5, -1.530e-4
0.312, 2.730e-5, -1.516e-4
0.313, 2.723e-5, -1.503e-4
0.314, 2.714e-5, -1.489e-4
0.315, 2.706e-5, -1.475e-4
0.316, 2.696e-5, -1.462e-4
0.317, 2.686e-5, -1.449e-4
0.318, 2.676e-5, -1.435e-4
0.319, 2.666e-5, -1.422e-4
0.320, 2.654e-5, -1.409e-4
0.321, 2.643e-5, -1.395e-4
0.322, 2.630e-5, -1.382e-4
0.323, 2.618e-5, -1.369e-4
0.324, 2.606e-5, -1.356e-4
0.325, 2.593e-5, -1.343e-4
0.326, 2.580e-5, -1.330e-4
0.327, 2.567e-5, -1.317e-4
0.328, 2.553e-5, -1.305e-4
0.329, 2.539e-5, -1.292e-4
0.330, 2.525e-5, -1.279e-4
0.331, 2.511e-5, -1.267e-4
0.332, 2.495e-5, -1.254e-4
0.333, 2.481e-5, -1.242e-4
0.334, 2.467e-5, -1.230e-4
0.335, 2.452e-5, -1.217e-4
0.336, 2.439e-5, -1.205e-4
0.337, 2.424e-5, -1.193e-4
0.338, 2.409e-5, -1.181e-4
0.339, 2.394e-5, -1.169e-4
0.340, 2.380e-5, -1.157e-4
0.341, 2.365e-5, -1.145e-4
0.342, 2.350e-5, -1.133e-4
0.343, 2.336e-5, -1.122e-4
0.344, 2.321e-5, -1.110e-4
0.345, 2.307e-5, -1.099e-4
0.346, 2.292e-5, -1.087e-4
0.347, 2.278e-5, -1.076e-4
0.348, 2.263e-5, -1.064e-4
0.349, 2.249e-5, -1.053e-4
0.350, 2.234e-5, -1.042e-4
0.351, 2.219e-5, -1.031e-4
0.352, 2.204e-5, -1.020e-4
0.353, 2.190e-5, -1.009e-4
0.354, 2.176e-5, -9.981e-5
0.355, 2.163e-5, -9.873e-5
0.356, 2.149e-5, -9.766e-5
0.357, 2.135e-5, -9.659e-5
0.358, 2.122e-5, -9.553e-5
0.359, 2.109e-5, -9.447e-5
0.360, 2.096e-5, -9.343e-5
0.361, 2.083e-5, -9.239e-5
0.362, 2.070e-5, -9.135e-5
0.363, 2.057e-5, -9.032e-5
0.364, 2.045e-5, -8.930e-5
0.365, 2.032e-5, -8.828e-5
0.366, 2.020e-5, -8.727e-5
0.367, 2.007e-5, -8.627e-5
0.368, 1.995e-5, -8.527e-5
0.369, 1.983e-5, -8.428e-5
0.370, 1.971e-5, -8.329e-5
0.371, 1.960e-5, -8.231e-5
0.372, 1.948e-5, -8.134e-5
0.373, 1.937e-5, -8.037e-5
0.374, 1.925e-5, -7.941e-5
0.375, 1.914e-5, -7.845e-5
0.376, 1.903e-5, -7.750e-5
0.377, 1.892e-5, -7.655e-5
0.378, 1.881e-5, -7.561e-5
0.379, 1.870e-5, -7.468e-5
0.380, 1.859e-5, -7.375e-5
0.381, 1.849e-5, -7.283e-5
0.382, 1.839e-5, -7.191e-5
0.383, 1.829e-5, -7.099e-5
0.384, 1.819e-5, -7.008e-5
0.385, 1.809e-5, -6.918e-5
0.386, 1.799e-5, -6.828e-5
0.387, 1.789e-5, -6.738e-5
0.388, 1.780e-5, -6.649e-5
0.389, 1.770e-5, -6.561e-5
0.390, 1.761e-5, -6.473e-5
0.391, 1.752e-5, -6.385e-5
0.392, 1.743e-5, -6.298e-5
0.393, 1.734e-5, -6.211e-5
0.394, 1.725e-5, -6.125e-5
0.395, 1.716e-5, -6.039e-5
0.396, 1.708e-5, -5.954e-5
0.397, 1.700e-5, -5.869e-5
0.398, 1.691e-5, -5.784e-5
0.399, 1.683e-5, -5.700e-5
0.400, 1.674e-5, -5.616e-5
0.401, 1.667e-5, -5.533e-5
0.402, 1.658e-5, -5.450e-5
0.403, 1.651e-5, -5.368e-5
0.404, 1.643e-5, -5.285e-5
0.405, 1.635e-5, -5.204e-5
0.406, 1.628e-5, -5.122e-5
0.407, 1.620e-5, -5.041e-5
0.408, 1.612e-5, -4.961e-5
0.409, 1.604e-5, -4.880e-5
0.410, 1.596e-5, -4.801e-5
0.411, 1.589e-5, -4.721e-5
0.412, 1.582e-5, -4.642e-5
0.413, 1.575e-5, -4.563e-5
0.414, 1.568e-5, -4.485e-5
0.415, 1.560e-5, -4.407e-5
0.416, 1.554e-5, -4.329e-5
0.417, 1.547e-5, -4.252e-5
0.418, 1.541e-5, -4.175e-5
0.419, 1.534e-5, -4.098e-5
0.420, 1.528e-5, -4.022e-5
0.421, 1.521e-5, -3.946e-5
0.422, 1.515e-5, -3.870e-5
0.423, 1.509e-5, -3.795e-5
0.424, 1.503e-5, -3.719e-5
0.425, 1.497e-5, -3.645e-5
0.426, 1.492e-5, -3.570e-5
0.427, 1.485e-5, -3.496e-5
0.428, 1.479e-5, -3.422e-5
0.429, 1.474e-5, -3.348e-5
0.430, 1.468e-5, -3.275e-5
0.431, 1.462e-5, -3.202e-5
0.432, 1.457e-5, -3.129e-5
0.433, 1.451e-5, -3.056e-5
0.434, 1.446e-5, -2.984e-5
0.435, 1.440e-5, -2.912e-5
0.436, 1.435e-5, -2.840e-5
0.437, 1.429e-5, -2.769e-5
0.438, 1.424e-5, -2.697e-5
0.439, 1.419e-5, -2.627e-5
0.440, 1.414e-5, -2.556e-5
0.441, 1.409e-5, -2.485e-5
0.442, 1.403e-5, -2.415e-5
0.443, 1.399e-5, -2.345e-5
0.444, 1.394e-5, -2.276e-5
0.445, 1.389e-5, -2.206e-5
0.446, 1.384e-5, -2.137e-5
0.447, 1.379e-5, -2.068e-5
0.448, 1.375e-5, -1.999e-5
0.449, 1.370e-5, -1.931e-5
0.450, 1.365e-5, -1.863e-5
0.451, 1.361e-5, -1.794e-5
0.452, 1.356e-5, -1.727e-5
0.453, 1.352e-5, -1.659e-5
0.454, 1.347e-5, -1.592e-5
0.455, 1.343e-5, -1.525e-5
0.456, 1.339e-5, -1.458e-5
0.457, 1.335e-5, -1.391e-5
0.458, 1.330e-5, -1.324e-5
0.459, 1.326e-5, -1.258e-5
0.460, 1.321e-5, -1.192e-5
0.461, 1.317e-5, -1.126e-5
0.462, 1.313e-5, -1.060e-5
0.463, 1.309e-5, -9.950e-6
0.464, 1.305e-5, -9.298e-6
0.465, 1.301e-5, -8.647e-6
0.466, 1.298e-5, -7.998e-6
0.467, 1.294e-5, -7.351e-6
0.468, 1.290e-5, -6.706e-6
0.469, 1.287e-5, -6.063e-6
0.470, 1.283e-5, -5.422e-6
0.471, 1.279e-5, -4.782e-6
0.472, 1.276e-5, -4.144e-6
0.473, 1.272e-5, -3.508e-6
0.474, 1.268e-5, -2.874e-6
0.475, 1.265e-5, -2.242e-6
0.476, 1.261e-5, -1.611e-6
0.477, 1.258e-5, -9.820e-7
0.478, 1.254e-5, -3.551e-7
0.479, 1.250e-5, 2.697e-7
0.480, 1.246e-5, 8.926e-7
0.481, 1.242e-5, 1.514e-6
0.482, 1.239e-5, 2.134e-6
0.483, 1.236e-5, 2.752e-6
0.484, 1.233e-5, 3.368e-6
0.485, 1.229e-5, 3.983e-6
0.486, 1.226e-5, 4.596e-6
0.487, 1.223e-5, 5.207e-6
0.488, 1.220e-5, 5.817e-6
0.489, 1.217e-5, 6.425e-6
0.490, 1.213e-5, 7.032e-6
0.491, 1.210e-5, 7.637e-6
0.492, 1.207e-5, 8.240e-6
0.493, 1.204e-5, 8.842e-6
0.494, 1.201e-5, 9.442e-6
0.495, 1.198e-5, 1.004e-5
0.496, 1.195e-5, 1.064e-5
0.497, 1.192e-5, 1.123e-5
0.498, 1.189e-5, 1.183e-5
0.499, 1.186e-5, 1.242e-5
0.500, 1.180e-5, 1.301e-5

Segment 3:
0.499, 1.172e-5, 1.360e-5
0.498, 1.168e-5, 1.418e-5
0.497, 1.164e-5, 1.476e-5
0.496, 1.160e-5, 1.534e-5
0.495, 1.156e-5, 1.592e-5
0.494, 1.153e-5, 1.650e-5
0.493, 1.149e-5, 1.707e-5
0.492, 1.146e-5, 1.765e-5
0.491, 1.142e-5, 1.822e-5
0.490, 1.139e-5, 1.879e-5
0.489, 1.135e-5, 1.935e-5
0.488, 1.132e-5, 1.992e-5
0.487, 1.129e-5, 2.048e-5
0.486, 1.125e-5, 2.105e-5
0.485, 1.122e-5, 2.161e-5
0.484, 1.119e-5, 2.217e-5
0.483, 1.116e-5, 2.273e-5
0.482, 1.113e-5, 2.328e-5
0.481, 1.110e-5, 2.384e-5
0.480, 1.107e-5, 2.439e-5
0.479, 1.104e-5, 2.494e-5
0.478, 1.101e-5, 2.549e-5
0.477, 1.098e-5, 2.604e-5
0.476, 1.095e-5, 2.659e-5
0.475, 1.092e-5, 2.714e-5
0.474, 1.089e-5, 2.768e-5
0.473, 1.086e-5, 2.822e-5
0.472, 1.084e-5, 2.877e-5
0.471, 1.081e-5, 2.931e-5
0.470, 1.078e-5, 2.985e-5
0.469, 1.075e-5, 3.038e-5
0.468, 1.072e-5, 3.092e-5
0.467, 1.070e-5, 3.145e-5
0.466, 1.067e-5, 3.199e-5
0.465, 1.064e-5, 3.252e-5
0.464, 1.062e-5, 3.305e-5
0.463, 1.059e-5, 3.358e-5
0.462, 1.056e-5, 3.411e-5
0.461, 1.054e-5, 3.464e-5
0.460, 1.051e-5, 3.516e-5
0.459, 1.048e-5, 3.568e-5
0.458, 1.046e-5, 3.621e-5
0.457, 1.044e-5, 3.673e-5
0.456, 1.041e-5, 3.725e-5
0.455, 1.038e-5, 3.777e-5
0.454, 1.036e-5, 3.829e-5
0.453, 1.033e-5, 3.880e-5
0.452, 1.031e-5, 3.932e-5
0.451, 1.028e-5, 3.983e-5
0.450, 1.026e-5, 4.035e-5
0.449, 1.024e-5, 4.086e-5
0.448, 1.021e-5, 4.137e-5
0.447, 1.018e-5, 4.188e-5
0.446, 1.015e-5, 4.238e-5
0.445, 1.013e-5, 4.289e-5
0.444, 1.010e-5, 4.340e-5
0.443, 1.008e-5, 4.390e-5
0.442, 1.006e-5, 4.440e-5
0.441, 1.003e-5, 4.490e-5
0.440, 1.001e-5, 4.541e-5
0.439, 9.981e-6, 4.590e-5
0.438, 9.957e-6, 4.640e-5
0.437, 9.931e-6, 4.690e-5
0.436, 9.905e-6, 4.739e-5
0.435, 9.881e-6, 4.789e-5
0.434, 9.855e-6, 4.838e-5
0.433, 9.828e-6, 4.887e-5
0.432, 9.798e-6, 4.936e-5
0.431, 9.768e-6, 4.985e-5
0.430, 9.736e-6, 5.034e-5
0.429, 9.709e-6, 5.082e-5
0.428, 9.685e-6, 5.131e-5
0.427, 9.661e-6, 5.179e-5
0.426, 9.637e-6, 5.227e-5
0.425, 9.612e-6, 5.275e-5
0.424, 9.588e-6, 5.323e-5
0.423, 9.564e-6, 5.371e-5
0.422, 9.539e-6, 5.419e-5
0.421, 9.513e-6, 5.466e-5
0.420, 9.490e-6, 5.514e-5
0.419, 9.467e-6, 5.561e-5
0.418, 9.440e-6, 5.608e-5
0.417, 9.409e-6, 5.655e-5
0.416, 9.381e-6, 5.702e-5
0.415, 9.353e-6, 5.749e-5
0.414, 9.327e-6, 5.796e-5
0.413, 9.299e-6, 5.842e-5
0.412, 9.275e-6, 5.888e-5
0.411, 9.250e-6, 5.935e-5
0.410, 9.222e-6, 5.981e-5
0.409, 9.194e-6, 6.027e-5
0.408, 9.166e-6, 6.073e-5
0.407, 9.138e-6, 6.118e-5
0.406, 9.111e-6, 6.164e-5
0.405, 9.085e-6, 6.209e-5
0.404, 9.057e-6, 6.255e-5
0.403, 9.026e-6, 6.300e-5
0.402, 8.997e-6, 6.345e-5
0.401, 8.968e-6, 6.390e-5
0.400, 8.937e-6, 6.434e-5
0.399, 8.908e-6, 6.479e-5
0.398, 8.877e-6, 6.523e-5
0.397, 8.846e-6, 6.567e-5
0.396, 8.814e-6, 6.611e-5
0.395, 8.783e-6, 6.655e-5
0.394, 8.751e-6, 6.699e-5
0.393, 8.719e-6, 6.743e-5
0.392, 8.690e-6, 6.786e-5
0.391, 8.656e-6, 6.829e-5
0.390, 8.617e-6, 6.873e-5
0.389, 8.580e-6, 6.915e-5
0.388, 8.542e-6, 6.958e-5
0.387, 8.507e-6, 7.001e-5
0.386, 8.472e-6, 7.043e-5
0.385, 8.434e-6, 7.085e-5
0.384, 8.395e-6, 7.127e-5
0.383, 8.357e-6, 7.169e-5
0.382, 8.319e-6, 7.211e-5
0.381, 8.278e-6, 7.252e-5
0.380, 8.235e-6, 7.293e-5
0.379, 8.190e-6, 7.334e-5
0.378, 8.146e-6, 7.375e-5
0.377, 8.104e-6, 7.415e-5
0.376, 8.059e-6, 7.456e-5
0.375, 8.011e-6, 7.496e-5
0.374, 7.964e-6, 7.535e-5
0.373, 7.921e-6, 7.575e-5
0.372, 7.871e-6, 7.614e-5
0.371, 7.815e-6, 7.654e-5
0.370, 7.759e-6, 7.692e-5
0.369, 7.708e-6, 7.731e-5
0.368, 7.651e-6, 7.769e-5
0.367, 7.596e-6, 7.807e-5
0.366, 7.540e-6, 7.845e-5
0.365, 7.482e-6, 7.882e-5
0.364, 7.420e-6, 7.919e-5
0.363, 7.358e-6, 7.956e-5
0.362, 7.295e-6, 7.993e-5
0.361, 7.231e-6, 8.029e-5
0.360, 7.165e-6, 8.065e-5
0.359, 7.100e-6, 8.100e-5
0.358, 7.021e-6, 8.135e-5
0.357, 6.950e-6, 8.170e-5
0.356, 6.876e-6, 8.204e-5
0.355, 6.799e-6, 8.238e-5
0.354, 6.724e-6, 8.272e-5
0.353, 6.639e-6, 8.305e-5
0.352, 6.550e-6, 8.338e-5
0.351, 6.468e-6, 8.370e-5
0.350, 6.379e-6, 8.402e-5
0.349, 6.287e-6, 8.433e-5
0.348, 6.189e-6, 8.464e-5
0.347, 6.097e-6, 8.495e-5
0.346, 5.998e-6, 8.525e-5
0.345, 5.900e-6, 8.554e-5
0.344, 5.793e-6, 8.583e-5
0.343, 5.690e-6, 8.612e-5
0.342, 5.585e-6, 8.640e-5
0.341, 5.468e-6, 8.667e-5
0.340, 5.350e-6, 8.694e-5
0.339, 5.235e-6, 8.720e-5
0.338, 5.112e-6, 8.746e-5
0.337, 4.988e-6, 8.771e-5
0.336, 4.860e-6, 8.795e-5
0.335, 4.725e-6, 8.818e-5
0.334, 4.586e-6, 8.841e-5
0.333, 4.448e-6, 8.864e-5
0.332, 4.302e-6, 8.885e-5
0.331, 4.161e-6, 8.906e-5
0.330, 4.013e-6, 8.926e-5
0.329, 3.850e-6, 8.945e-5
0.328, 3.690e-6, 8.964e-5
0.327, 3.511e-6, 8.981e-5
0.326, 3.329e-6, 8.998e-5
0.325, 3.163e-6, 9.014e-5
0.324, 2.985e-6, 9.029e-5
0.323, 2.808e-6, 9.043e-5
0.322, 2.620e-6, 9.056e-5
0.321, 2.436e-6, 9.068e-5
0.320, 2.232e-6, 9.079e-5
0.319, 2.034e-6, 9.089e-5
0.318, 1.829e-6, 9.098e-5
0.317, 1.623e-6, 9.107e-5
0.316, 1.404e-6, 9.114e-5
0.315, 1.187e-6, 9.119e-5
0.314, 9.626e-7, 9.124e-5
0.313, 7.352e-7, 9.128e-5
0.312, 5.009e-7, 9.130e-5
0.311, 2.360e-7, 9.132e-5
0.310, -2.179e-8, 9.132e-5
0.309, -2.775e-7, 9.130e-5
0.308, -5.330e-7, 9.128e-5
0.307, -8.029e-7, 9.123e-5
0.306, -1.065e-6, 9.118e-5
0.305, -1.333e-6, 9.112e-5
0.304, -1.613e-6, 9.103e-5
0.303, -1.895e-6, 9.094e-5
0.302, -2.177e-6, 9.083e-5
0.301, -2.470e-6, 9.071e-5
0.300, -2.792e-6, 9.057e-5
0.299, -3.094e-6, 9.041e-5
0.298, -3.402e-6, 9.024e-5
0.297, -3.712e-6, 9.006e-5
0.296, -4.027e-6, 8.986e-5
0.295, -4.340e-6, 8.964e-5
0.294, -4.675e-6, 8.941e-5
0.293, -4.995e-6, 8.916e-5
0.292, -5.348e-6, 8.889e-5
0.291, -5.681e-6, 8.860e-5
0.290, -6.023e-6, 8.830e-5
0.289, -6.373e-6, 8.798e-5
0.288, -6.727e-6, 8.765e-5
0.287, -7.087e-6, 8.729e-5
0.286, -7.435e-6, 8.692e-5
0.285, -7.790e-6, 8.653e-5
0.284, -8.167e-6, 8.612e-5
0.283, -8.536e-6, 8.570e-5
0.282, -8.920e-6, 8.525e-5
0.281, -9.303e-6, 8.479e-5
0.280, -9.676e-6, 8.430e-5
0.279, -1.005e-5, 8.380e-5
0.278, -1.044e-5, 8.328e-5
0.277, -1.080e-5, 8.274e-5
0.276, -1.120e-5, 8.218e-5
0.275, -1.157e-5, 8.160e-5
0.274, -1.195e-5, 8.100e-5
0.273, -1.233e-5, 8.038e-5
0.272, -1.272e-5, 7.975e-5
0.271, -1.310e-5, 7.909e-5
0.270, -1.349e-5, 7.842e-5
0.269, -1.389e-5, 7.772e-5
0.268, -1.426e-5, 7.701e-5
0.267, -1.465e-5, 7.628e-5
0.266, -1.502e-5, 7.553e-5
0.265, -1.543e-5, 7.476e-5
0.264, -1.580e-5, 7.397e-5
0.263, -1.617e-5, 7.316e-5
0.262, -1.655e-5, 7.233e-5
0.261, -1.692e-5, 7.148e-5
0.260, -1.729e-5, 7.062e-5
0.259, -1.764e-5, 6.974e-5
0.258, -1.798e-5, 6.884e-5
0.257, -1.835e-5, 6.792e-5
0.256, -1.870e-5, 6.699e-5
0.255, -1.905e-5, 6.603e-5
0.254, -1.937e-5, 6.507e-5
0.253, -1.971e-5, 6.408e-5
0.252, -2.005e-5, 6.308e-5
0.251, -2.036e-5, 6.206e-5
0.250, -2.068e-5, 6.103e-5
0.249, -2.099e-5, 5.998e-5
0.248, -2.129e-5, 5.891e-5
0.247, -2.159e-5, 5.783e-5
0.246, -2.187e-5, 5.674e-5
0.245, -2.216e-5, 5.563e-5
0.244, -2.243e-5, 5.451e-5
0.243, -2.269e-5, 5.338e-5
0.242, -2.294e-5, 5.223e-5
0.241, -2.319e-5, 5.107e-5
0.240, -2.341e-5, 4.990e-5
0.239, -2.364e-5, 4.872e-5
0.238, -2.385e-5, 4.752e-5
0.237, -2.405e-5, 4.632e-5
0.236, -2.426e-5, 4.511e-5
0.235, -2.444e-5, 4.389e-5
0.234, -2.463e-5, 4.265e-5
0.233, -2.479e-5, 4.141e-5
0.232, -2.495e-5, 4.017e-5
0.231, -2.510e-5, 3.891e-5
0.230, -2.526e-5, 3.765e-5
0.229, -2.538e-5, 3.638e-5
0.228, -2.549e-5, 3.511e-5
0.227, -2.560e-5, 3.383e-5
0.226, -2.571e-5, 3.254e-5
0.225, -2.579e-5, 3.125e-5
0.224, -2.588e-5, 2.996e-5
0.223, -2.595e-5, 2.866e-5
0.222, -2.601e-5, 2.736e-5
0.221, -2.606e-5, 2.606e-5
0.220, -2.610e-5, 2.475e-5
0.219, -2.614e-5, 2.345e-5
0.218, -2.616e-5, 2.214e-5
0.217, -2.618e-5, 2.083e-5
0.216, -2.618e-5, 1.952e-5
0.215, -2.619e-5, 1.821e-5
0.214, -2.617e-5, 1.690e-5
0.213, -2.616e-5, 1.559e-5
0.212, -2.613e-5, 1.429e-5
0.211, -2.610e-5, 1.298e-5
0.210, -2.606e-5, 1.168e-5
0.209, -2.601e-5, 1.038e-5
0.208, -2.596e-5, 9.080e-6
0.207, -2.590e-5, 7.786e-6
0.206, -2.584e-5, 6.493e-6
0.205, -2.574e-5, 5.206e-6
0.204, -2.566e-5, 3.923e-6
0.203, -2.559e-5, 2.644e-6
0.202, -2.551e-5, 1.368e-6
0.201, -2.542e-5, 9.714e-8
0.200, -2.532e-5, -1.169e-6
0.199, -2.523e-5, -2.430e-6
0.198, -2.512e-5, -3.687e-6
0.197, -2.502e-5, -4.938e-6
0.196, -2.490e-5, -6.183e-6
0.195, -2.479e-5, -7.422e-6
0.194, -2.468e-5, -8.656e-6
0.193, -2.455e-5, -9.884e-6
0.192, -2.442e-5, -1.110e-5
0.191, -2.430e-5, -1.232e-5
0.190, -2.417e-5, -1.353e-5
0.189, -2.404e-5, -1.473e-5
0.188, -2.391e-5, -1.592e-5
0.187, -2.377e-5, -1.711e-5
0.186, -2.364e-5, -1.830e-5
0.185, -2.351e-5, -1.947e-5
0.184, -2.336e-5, -2.064e-5
0.183, -2.322e-5, -2.180e-5
0.182, -2.309e-5, -2.295e-5
0.181, -2.295e-5, -2.410e-5
0.180, -2.281e-5, -2.524e-5
0.179, -2.267e-5, -2.638e-5
0.178, -2.253e-5, -2.750e-5
0.177, -2.239e-5, -2.862e-5
0.176, -2.225e-5, -2.973e-5
0.175, -2.211e-5, -3.084e-5
0.174, -2.197e-5, -3.194e-5
0.173, -2.183e-5, -3.303e-5
0.172, -2.169e-5, -3.411e-5
0.171, -2.155e-5, -3.519e-5
0.170, -2.140e-5, -3.626e-5
0.169, -2.126e-5, -3.733e-5
0.168, -2.112e-5, -3.838e-5
0.167, -2.098e-5, -3.943e-5
0.166, -2.085e-5, -4.047e-5
0.165, -2.072e-5, -4.151e-5
0.164, -2.059e-5, -4.254e-5
0.163, -2.045e-5, -4.356e-5
0.162, -2.033e-5, -4.458e-5
0.161, -2.019e-5, -4.559e-5
0.160, -2.006e-5, -4.659e-5
0.159, -1.994e-5, -4.759e-5
0.158, -1.981e-5, -4.858e-5
0.157, -1.968e-5, -4.956e-5
0.156, -1.956e-5, -5.054e-5
0.155, -1.944e-5, -5.151e-5
0.154, -1.931e-5, -5.248e-5
0.153, -1.919e-5, -5.344e-5
0.152, -1.908e-5, -5.439e-5
0.151, -1.896e-5, -5.534e-5
0.150, -1.884e-5, -5.628e-5
0.149, -1.873e-5, -5.722e-5
0.148, -1.861e-5, -5.815e-5
0.147, -1.849e-5, -5.907e-5
0.146, -1.839e-5, -5.999e-5
0.145, -1.828e-5, -6.091e-5
0.144, -1.816e-5, -6.181e-5
0.143, -1.806e-5, -6.272e-5
0.142, -1.795e-5, -6.361e-5
0.141, -1.784e-5, -6.451e-5
0.140, -1.774e-5, -6.539e-5
0.139, -1.764e-5, -6.627e-5
0.138, -1.754e-5, -6.715e-5
0.137, -1.744e-5, -6.802e-5
0.136, -1.734e-5, -6.889e-5
0.135, -1.724e-5, -6.975e-5
0.134, -1.715e-5, -7.061e-5
0.133, -1.705e-5, -7.146e-5
0.132, -1.696e-5, -7.231e-5
0.131, -1.686e-5, -7.315e-5
0.130, -1.677e-5, -7.399e-5
0.129, -1.668e-5, -7.483e-5
0.128, -1.659e-5, -7.565e-5
0.127, -1.650e-5, -7.648e-5
0.126, -1.642e-5, -7.730e-5
0.125, -1.633e-5, -7.812e-5
0.124, -1.624e-5, -7.893e-5
0.123, -1.616e-5, -7.974e-5
0.122, -1.608e-5, -8.054e-5
0.121, -1.600e-5, -8.134e-5
0.120, -1.592e-5, -8.214e-5
0.119, -1.584e-5, -8.293e-5
0.118, -1.576e-5, -8.372e-5
0.117, -1.568e-5, -8.450e-5
0.116, -1.561e-5, -8.528e-5
0.115, -1.553e-5, -8.606e-5
0.114, -1.545e-5, -8.683e-5
0.113, -1.538e-5, -8.760e-5
0.112, -1.531e-5, -8.836e-5
0.111, -1.523e-5, -8.913e-5
0.110, -1.515e-5, -8.988e-5
0.109, -1.507e-5, -9.064e-5
0.108, -1.500e-5, -9.139e-5
0.107, -1.493e-5, -9.213e-5
0.106, -1.486e-5, -9.288e-5
0.105, -1.479e-5, -9.362e-5
0.104, -1.472e-5, -9.435e-5
0.103, -1.466e-5, -9.508e-5
0.102, -1.460e-5, -9.581e-5
0.101, -1.453e-5, -9.654e-5
0.100, -1.447e-5, -9.726e-5
0.099, -1.441e-5, -9.799e-5
0.098, -1.435e-5, -9.870e-5
0.097, -1.428e-5, -9.942e-5
0.096, -1.423e-5, -1.001e-4
0.095, -1.416e-5, -1.008e-4
0.094, -1.411e-5, -1.015e-4
0.093, -1.405e-5, -1.022e-4
0.092, -1.399e-5, -1.029e-4
0.091, -1.393e-5, -1.036e-4
0.090, -1.388e-5, -1.043e-4
0.089, -1.382e-5, -1.050e-4
0.088, -1.377e-5, -1.057e-4
0.087, -1.371e-5, -1.064e-4
0.086, -1.366e-5, -1.071e-4
0.085, -1.361e-5, -1.078e-4
0.084, -1.356e-5, -1.084e-4
0.083, -1.350e-5, -1.091e-4
0.082, -1.345e-5, -1.098e-4
0.081, -1.340e-5, -1.105e-4
0.080, -1.335e-5, -1.111e-4
0.079, -1.330e-5, -1.118e-4
0.078, -1.325e-5, -1.125e-4
0.077, -1.320e-5, -1.131e-4
0.076, -1.316e-5, -1.138e-4
0.075, -1.311e-5, -1.144e-4
0.074, -1.306e-5, -1.151e-4
0.073, -1.301e-5, -1.157e-4
0.072, -1.297e-5, -1.164e-4
0.071, -1.292e-5, -1.170e-4
0.070, -1.288e-5, -1.177e-4
0.069, -1.284e-5, -1.183e-4
0.068, -1.279e-5, -1.190e-4
0.067, -1.275e-5, -1.196e-4
0.066, -1.270e-5, -1.202e-4
0.065, -1.266e-5, -1.209e-4
0.064, -1.262e-5, -1.215e-4
0.063, -1.258e-5, -1.221e-4
0.062, -1.253e-5, -1.227e-4
0.061, -1.249e-5, -1.234e-4
0.060, -1.245e-5, -1.240e-4
0.059, -1.241e-5, -1.246e-4
0.058, -1.237e-5, -1.252e-4
0.057, -1.233e-5, -1.258e-4
0.056, -1.229e-5, -1.265e-4
0.055, -1.225e-5, -1.271e-4
0.054, -1.221e-5, -1.277e-4
0.053, -1.217e-5, -1.283e-4
0.052, -1.214e-5, -1.289e-4
0.051, -1.210e-5, -1.295e-4
0.050, -1.207e-5, -1.301e-4
0.049, -1.203e-5, -1.307e-4
0.048, -1.200e-5, -1.313e-4
0.047, -1.196e-5, -1.319e-4
0.046, -1.193e-5, -1.325e-4
0.045, -1.189e-5, -1.331e-4
0.044, -1.186e-5, -1.337e-4
0.043, -1.182e-5, -1.343e-4
0.042, -1.179e-5, -1.349e-4
0.041, -1.176e-5, -1.355e-4
0.040, -1.172e-5, -1.360e-4
0.039, -1.169e-5, -1.366e-4
0.038, -1.165e-5, -1.372e-4
0.037, -1.162e-5, -1.378e-4
0.036, -1.159e-5, -1.384e-4
0.035, -1.156e-5, -1.389e-4
0.034, -1.152e-5, -1.395e-4
0.033, -1.150e-5, -1.401e-4
0.032, -1.146e-5, -1.407e-4
0.031, -1.143e-5, -1.412e-4
0.030, -1.140e-5, -1.418e-4
0.029, -1.137e-5, -1.424e-4
0.028, -1.134e-5, -1.430e-4
0.027, -1.131e-5, -1.435e-4
0.026, -1.129e-5, -1.441e-4
0.025, -1.126e-5, -1.446e-4
0.024, -1.122e-5, -1.452e-4
0.023, -1.119e-5, -1.458e-4
0.022, -1.117e-5, -1.463e-4
0.021, -1.114e-5, -1.469e-4
0.020, -1.111e-5, -1.474e-4
0.019, -1.108e-5, -1.480e-4
0.018, -1.105e-5, -1.485e-4
0.017, -1.102e-5, -1.491e-4
0.016, -1.100e-5, -1.496e-4
0.015, -1.097e-5, -1.502e-4
0.014, -1.094e-5, -1.507e-4
0.013, -1.092e-5, -1.513e-4
0.012, -1.089e-5, -1.518e-4
0.011, -1.086e-5, -1.524e-4
0.010, -1.084e-5, -1.529e-4
0.009, -1.081e-5, -1.535e-4
0.008, -1.078e-5, -1.540e-4
0.007, -1.076e-5, -1.545e-4
0.006, -1.073e-5, -1.551e-4
0.005, -1.071e-5, -1.556e-4
0.004, -1.068e-5, -1.561e-4
0.003, -1.066e-5, -1.567e-4
0.002, -1.063e-5, -1.572e-4
0.001, -1.061e-5, -1.577e-4
0.000, -1.056e-5, -1.583e-4

Segment 4:
0.001, -1.051e-5, -1.588e-4
0.002, -1.047e-5, -1.593e-4
0.003, -1.043e-5, -1.598e-4
0.004, -1.040e-5, -1.604e-4
0.005, -1.037e-5, -1.609e-4
0.006, -1.034e-5, -1.614e-4
0.007, -1.032e-5, -1.619e-4
0.008, -1.029e-5, -1.624e-4
0.009, -1.026e-5, -1.629e-4
0.010, -1.023e-5, -1.634e-4
0.011, -1.020e-5, -1.640e-4
0.012, -1.018e-5, -1.645e-4
0.013, -1.015e-5, -1.650e-4
0.014, -1.013e-5, -1.655e-4
0.015, -1.010e-5, -1.660e-4
0.016, -1.007e-5, -1.665e-4
0.017, -1.004e-5, -1.670e-4
0.018, -1.002e-5, -1.675e-4
0.019, -9.994e-6, -1.680e-4
0.020, -9.970e-6, -1.685e-4
0.021, -9.945e-6, -1.690e-4
0.022, -9.923e-6, -1.695e-4
0.023, -9.899e-6, -1.700e-4
0.024, -9.873e-6, -1.705e-4
0.025, -9.851e-6, -1.710e-4
0.026, -9.826e-6, -1.715e-4
0.027, -9.803e-6, -1.719e-4
0.028, -9.780e-6, -1.724e-4
0.029, -9.759e-6, -1.729e-4
0.030, -9.737e-6, -1.734e-4
0.031, -9.713e-6, -1.739e-4
0.032, -9.689e-6, -1.744e-4
0.033, -9.666e-6, -1.749e-4
0.034, -9.644e-6, -1.753e-4
0.035, -9.618e-6, -1.758e-4
0.036, -9.596e-6, -1.763e-4
0.037, -9.575e-6, -1.768e-4
0.038, -9.555e-6, -1.773e-4
0.039, -9.534e-6, -1.777e-4
0.040, -9.513e-6, -1.782e-4
0.041, -9.490e-6, -1.787e-4
0.042, -9.469e-6, -1.792e-4
0.043, -9.449e-6, -1.796e-4
0.044, -9.428e-6, -1.801e-4
0.045, -9.405e-6, -1.806e-4
0.046, -9.386e-6, -1.810e-4
0.047, -9.365e-6, -1.815e-4
0.048, -9.346e-6, -1.820e-4
0.049, -9.324e-6, -1.824e-4
0.050, -9.303e-6, -1.829e-4
0.051, -9.279e-6, -1.834e-4
0.052, -9.261e-6, -1.838e-4
0.053, -9.239e-6, -1.843e-4
0.054, -9.217e-6, -1.848e-4
0.055, -9.196e-6, -1.852e-4
0.056, -9.178e-6, -1.857e-4
0.057, -9.159e-6, -1.861e-4
0.058, -9.138e-6, -1.866e-4
0.059, -9.118e-6, -1.870e-4
0.060, -9.097e-6, -1.875e-4
0.061, -9.078e-6, -1.880e-4
0.062, -9.060e-6, -1.884e-4
0.063, -9.041e-6, -1.889e-4
0.064, -9.020e-6, -1.893e-4
0.065, -9.001e-6, -1.898e-4
0.066, -8.981e-6, -1.902e-4
0.067, -8.961e-6, -1.907e-4
0.068, -8.941e-6, -1.911e-4
0.069, -8.917e-6, -1.916e-4
0.070, -8.892e-6, -1.920e-4
0.071, -8.870e-6, -1.924e-4
0.072, -8.844e-6, -1.929e-4
0.073, -8.819e-6, -1.933e-4
0.074, -8.799e-6, -1.938e-4
0.075, -8.780e-6, -1.942e-4
0.076, -8.763e-6, -1.946e-4
0.077, -8.741e-6, -1.951e-4
0.078, -8.722e-6, -1.955e-4
0.079, -8.702e-6, -1.959e-4
0.080, -8.682e-6, -1.964e-4
0.081, -8.664e-6, -1.968e-4
0.082, -8.644e-6, -1.972e-4
0.083, -8.624e-6, -1.977e-4
0.084, -8.605e-6, -1.981e-4
0.085, -8.585e-6, -1.985e-4
0.086, -8.567e-6, -1.990e-4
0.087, -8.545e-6, -1.994e-4
0.088, -8.524e-6, -1.998e-4
0.089, -8.503e-6, -2.002e-4
0.090, -8.482e-6, -2.007e-4
0.091, -8.463e-6, -2.011e-4
0.092, -8.443e-6, -2.015e-4
0.093, -8.421e-6, -2.019e-4
0.094, -8.402e-6, -2.024e-4
0.095, -8.381e-6, -2.028e-4
0.096, -8.362e-6, -2.032e-4
0.097, -8.341e-6, -2.036e-4
0.098, -8.318e-6, -2.040e-4
0.099, -8.297e-6, -2.044e-4
0.100, -8.276e-6, -2.049e-4
0.101, -8.255e-6, -2.053e-4
0.102, -8.235e-6, -2.057e-4
0.103, -8.213e-6, -2.061e-4
0.104, -8.191e-6, -2.065e-4
0.105, -8.172e-6, -2.069e-4
0.106, -8.148e-6, -2.073e-4
0.107, -8.123e-6, -2.077e-4
0.108, -8.099e-6, -2.081e-4
0.109, -8.074e-6, -2.085e-4
0.110, -8.050e-6, -2.089e-4
0.111, -8.026e-6, -2.093e-4
0.112, -8.004e-6, -2.097e-4
0.113, -7.980e-6, -2.101e-4
0.114, -7.954e-6, -2.105e-4
0.115, -7.927e-6, -2.109e-4
0.116, -7.902e-6, -2.113e-4
0.117, -7.877e-6, -2.117e-4
0.118, -7.851e-6, -2.121e-4
0.119, -7.823e-6, -2.125e-4
0.120, -7.800e-6, -2.129e-4
0.121, -7.774e-6, -2.133e-4
0.122, -7.744e-6, -2.137e-4
0.123, -7.712e-6, -2.141e-4
0.124, -7.682e-6, -2.144e-4
0.125, -7.652e-6, -2.148e-4
0.126, -7.621e-6, -2.152e-4
0.127, -7.592e-6, -2.156e-4
0.128, -7.560e-6, -2.160e-4
0.129, -7.528e-6, -2.163e-4
0.130, -7.497e-6, -2.167e-4
0.131, -7.465e-6, -2.171e-4
0.132, -7.431e-6, -2.175e-4
0.133, -7.397e-6, -2.178e-4
0.134, -7.360e-6, -2.182e-4
0.135, -7.322e-6, -2.186e-4
0.136, -7.286e-6, -2.189e-4
0.137, -7.243e-6, -2.193e-4
0.138, -7.208e-6, -2.196e-4
0.139, -7.168e-6, -2.200e-4
0.140, -7.128e-6, -2.204e-4
0.141, -7.089e-6, -2.207e-4
0.142, -7.046e-6, -2.211e-4
0.143, -7.005e-6, -2.214e-4
0.144, -6.959e-6, -2.218e-4
0.145, -6.912e-6, -2.221e-4
0.146, -6.861e-6, -2.225e-4
0.147, -6.814e-6, -2.228e-4
0.148, -6.764e-6, -2.231e-4
0.149, -6.717e-6, -2.235e-4
0.150, -6.666e-6, -2.238e-4
0.151, -6.613e-6, -2.241e-4
0.152, -6.558e-6, -2.245e-4
0.153, -6.501e-6, -2.248e-4
0.154, -6.440e-6, -2.251e-4
0.155, -6.383e-6, -2.254e-4
0.156, -6.322e-6, -2.257e-4
0.157, -6.264e-6, -2.261e-4
0.158, -6.198e-6, -2.264e-4
0.159, -6.125e-6, -2.267e-4
0.160, -6.056e-6, -2.270e-4
0.161, -5.984e-6, -2.273e-4
0.162, -5.916e-6, -2.276e-4
0.163, -5.842e-6, -2.279e-4
0.164, -5.761e-6, -2.281e-4
0.165, -5.681e-6, -2.284e-4
0.166, -5.597e-6, -2.287e-4
0.167, -5.518e-6, -2.290e-4
0.168, -5.430e-6, -2.293e-4
0.169, -5.341e-6, -2.295e-4
0.170, -5.253e-6, -2.298e-4
0.171, -5.158e-6, -2.300e-4
0.172, -5.065e-6, -2.303e-4
0.173, -4.968e-6, -2.305e-4
0.174, -4.862e-6, -2.308e-4
0.175, -4.757e-6, -2.310e-4
0.176, -4.652e-6, -2.313e-4
0.177, -4.539e-6, -2.315e-4
0.178, -4.422e-6, -2.317e-4
0.179, -4.308e-6, -2.319e-4
0.180, -4.189e-6, -2.321e-4
0.181, -4.064e-6, -2.323e-4
0.182, -3.934e-6, -2.325e-4
0.183, -3.806e-6, -2.327e-4
0.184, -3.669e-6, -2.329e-4
0.185, -3.534e-6, -2.331e-4
0.186, -3.391e-6, -2.333e-4
0.187, -3.241e-6, -2.334e-4
0.188, -3.097e-6, -2.336e-4
0.189, -2.937e-6, -2.337e-4
0.190, -2.781e-6, -2.339e-4
0.191, -2.605e-6, -2.340e-4
0.192, -2.428e-6, -2.341e-4
0.193, -2.254e-6, -2.342e-4
0.194, -2.078e-6, -2.343e-4
0.195, -1.897e-6, -2.344e-4
0.196, -1.713e-6, -2.345e-4
0.197, -1.529e-6, -2.346e-4
0.198, -1.336e-6, -2.347e-4
0.199, -1.127e-6, -2.347e-4
0.200, -9.174e-7, -2.348e-4
0.201, -7.199e-7, -2.348e-4
0.202, -5.016e-7, -2.348e-4
0.203, -2.789e-7, -2.348e-4
0.204, -5.831e-8, -2.348e-4
0.205, 1.697e-7, -2.348e-4
0.206, 4.242e-7, -2.348e-4
0.207, 6.711e-7, -2.348e-4
0.208, 9.305e-7, -2.347e-4
0.209, 1.169e-6, -2.347e-4
0.210, 1.426e-6, -2.346e-4
0.211, 1.688e-6, -2.345e-4
0.212, 1.961e-6, -2.344e-4
0.213, 2.226e-6, -2.343e-4
0.214, 2.508e-6, -2.342e-4
0.215, 2.783e-6, -2.340e-4
0.216, 3.072e-6, -2.339e-4
0.217, 3.365e-6, -2.337e-4
0.218, 3.685e-6, -2.335e-4
0.219, 3.995e-6, -2.333e-4
0.220, 4.303e-6, -2.331e-4
0.221, 4.611e-6, -2.329e-4
0.222, 4.927e-6, -2.326e-4
0.223, 5.244e-6, -2.324e-4
0.224, 5.582e-6, -2.321e-4
0.225, 5.913e-6, -2.318e-4
0.226, 6.238e-6, -2.315e-4
0.227, 6.589e-6, -2.312e-4
0.228, 6.931e-6, -2.308e-4
0.229, 7.283e-6, -2.304e-4
0.230, 7.633e-6, -2.301e-4
0.231, 7.987e-6, -2.297e-4
0.232, 8.346e-6, -2.292e-4
0.233, 8.711e-6, -2.288e-4
0.234, 9.087e-6, -2.284e-4
0.235, 9.448e-6, -2.279e-4
0.236, 9.835e-6, -2.274e-4
0.237, 1.022e-5, -2.269e-4
0.238, 1.061e-5, -2.264e-4
0.239, 1.100e-5, -2.258e-4
0.240, 1.137e-5, -2.252e-4
0.241, 1.175e-5, -2.246e-4
0.242, 1.212e-5, -2.240e-4
0.243, 1.253e-5, -2.234e-4
0.244, 1.292e-5, -2.228e-4
0.245, 1.329e-5, -2.221e-4
0.246, 1.369e-5, -2.214e-4
0.247, 1.406e-5, -2.207e-4
0.248, 1.445e-5, -2.200e-4
0.249, 1.483e-5, -2.193e-4
0.250, 1.522e-5, -2.185e-4
0.251, 1.561e-5, -2.177e-4
0.252, 1.601e-5, -2.169e-4
0.253, 1.642e-5, -2.161e-4
0.254, 1.680e-5, -2.153e-4
0.255, 1.717e-5, -2.144e-4
0.256, 1.754e-5, -2.135e-4
0.257, 1.791e-5, -2.126e-4
0.258, 1.827e-5, -2.117e-4
0.259, 1.863e-5, -2.108e-4
0.260, 1.900e-5, -2.098e-4
0.261, 1.937e-5, -2.089e-4
0.262, 1.971e-5, -2.079e-4
0.263, 2.006e-5, -2.069e-4
0.264, 2.040e-5, -2.058e-4
0.265, 2.074e-5, -2.048e-4
0.266, 2.106e-5, -2.038e-4
0.267, 2.139e-5, -2.027e-4
0.268, 2.170e-5, -2.016e-4
0.269, 2.201e-5, -2.005e-4
0.270, 2.231e-5, -1.994e-4
0.271, 2.262e-5, -1.983e-4
0.272, 2.292e-5, -1.971e-4
0.273, 2.319e-5, -1.960e-4
0.274, 2.345e-5, -1.948e-4
0.275, 2.371e-5, -1.936e-4
0.276, 2.398e-5, -1.924e-4
0.277, 2.422e-5, -1.912e-4
0.278, 2.444e-5, -1.900e-4
0.279, 2.466e-5, -1.887e-4
0.280, 2.489e-5, -1.875e-4
0.281, 2.510e-5, -1.862e-4
0.282, 2.530e-5, -1.850e-4
0.283, 2.549e-5, -1.837e-4
0.284, 2.567e-5, -1.824e-4
0.285, 2.584e-5, -1.811e-4
0.286, 2.599e-5, -1.798e-4
0.287, 2.614e-5, -1.785e-4
0.288, 2.629e-5, -1.772e-4
0.289, 2.641e-5, -1.759e-4
0.290, 2.653e-5, -1.745e-4
0.291, 2.663e-5, -1.732e-4
0.292, 2.673e-5, -1.719e-4
0.293, 2.680e-5, -1.705e-4
0.294, 2.689e-5, -1.692e-4
0.295, 2.696e-5, -1.678e-4
0.296, 2.702e-5, -1.665e-4
0.297, 2.706e-5, -1.651e-4
0.298, 2.710e-5, -1.638e-4
0.299, 2.713e-5, -1.624e-4
0.300, 2.716e-5, -1.611e-4
0.301, 2.716e-5, -1.597e-4
0.302, 2.716e-5, -1.584e-4
0.303, 2.715e-5, -1.570e-4
0.304, 2.714e-5, -1.556e-4
0.305, 2.712e-5, -1.543e-4
0.306, 2.709e-5, -1.529e-4
0.307, 2.706e-5, -1.516e-4
0.308, 2.702e-5, -1.502e-4
0.309, 2.697e-5, -1.489e-4
0.310, 2.690e-5, -1.475e-4
0.311, 2.685e-5, -1.462e-4
0.312, 2.677e-5, -1.449e-4
0.313, 2.670e-5, -1.435e-4
0.314, 2.661e-5, -1.422e-4
0.315, 2.652e-5, -1.409e-4
0.316, 2.643e-5, -1.395e-4
0.317, 2.633e-5, -1.382e-4
