Mar. 30, 2023   16:52:47
Cyclic Voltammetry
File: 10mmol2mvs
Data Source:  Experiment
Instrument Model:  CHI600B
Header: 
Note: 

Init E (V) = 0.268
High E (V) = 0.5
Low E (V) = -0.1
Init P/N = N
Scan Rate (V/s) = 0.002
Segment = 4
Sample Interval (V) = 0.001
Quiet Time (sec) = 2
Sensitivity (A/V) = 5e-6

Segment 1:

Segment 2:
Ep = 0.281V
ip = 1.347e-5A
Ah = 3.422e-4C

Segment 3:
Ep = 0.217V
ip = -1.243e-5A
Ah = -4.325e-4C

Segment 4:

Potential/V, Current/A, Charge/C

Segment 1:
0.267, 1.067e-6, 5.336e-7
0.266, 1.044e-8, 5.388e-7
0.265, -6.299e-7, 2.239e-7
0.264, -1.121e-6, -3.367e-7
0.263, -1.532e-6, -1.103e-6
0.262, -1.898e-6, -2.052e-6
0.261, -2.231e-6, -3.168e-6
0.260, -2.529e-6, -4.432e-6
0.259, -2.807e-6, -5.836e-6
0.258, -3.069e-6, -7.370e-6
0.257, -3.322e-6, -9.031e-6
0.256, -3.559e-6, -1.081e-5
0.255, -3.780e-6, -1.270e-5
0.254, -4.000e-6, -1.470e-5
0.253, -4.209e-6, -1.681e-5
0.252, -4.399e-6, -1.900e-5
0.251, -4.587e-6, -2.130e-5
0.250, -4.774e-6, -2.369e-5
0.249, -4.949e-6, -2.616e-5
0.248, -5.120e-6, -2.872e-5
0.247, -5.282e-6, -3.136e-5
0.246, -5.439e-6, -3.408e-5
0.245, -5.581e-6, -3.687e-5
0.244, -5.723e-6, -3.973e-5
0.243, -5.858e-6, -4.266e-5
0.242, -5.984e-6, -4.565e-5
0.241, -6.103e-6, -4.871e-5
0.240, -6.227e-6, -5.182e-5
0.239, -6.343e-6, -5.499e-5
0.238, -6.446e-6, -5.821e-5
0.237, -6.547e-6, -6.149e-5
0.236, -6.640e-6, -6.481e-5
0.235, -6.724e-6, -6.817e-5
0.234, -6.819e-6, -7.158e-5
0.233, -6.907e-6, -7.503e-5
0.232, -6.977e-6, -7.852e-5
0.231, -7.050e-6, -8.204e-5
0.230, -7.115e-6, -8.560e-5
0.229, -7.177e-6, -8.919e-5
0.228, -7.239e-6, -9.281e-5
0.227, -7.290e-6, -9.646e-5
0.226, -7.336e-6, -1.001e-4
0.225, -7.378e-6, -1.038e-4
0.224, -7.424e-6, -1.075e-4
0.223, -7.463e-6, -1.113e-4
0.222, -7.501e-6, -1.150e-4
0.221, -7.527e-6, -1.188e-4
0.220, -7.552e-6, -1.225e-4
0.219, -7.575e-6, -1.263e-4
0.218, -7.603e-6, -1.301e-4
0.217, -7.617e-6, -1.339e-4
0.216, -7.629e-6, -1.378e-4
0.215, -7.641e-6, -1.416e-4
0.214, -7.654e-6, -1.454e-4
0.213, -7.660e-6, -1.492e-4
0.212, -7.660e-6, -1.531e-4
0.211, -7.663e-6, -1.569e-4
0.210, -7.664e-6, -1.607e-4
0.209, -7.660e-6, -1.646e-4
0.208, -7.655e-6, -1.684e-4
0.207, -7.646e-6, -1.722e-4
0.206, -7.635e-6, -1.760e-4
0.205, -7.617e-6, -1.798e-4
0.204, -7.605e-6, -1.836e-4
0.203, -7.594e-6, -1.874e-4
0.202, -7.579e-6, -1.912e-4
0.201, -7.563e-6, -1.950e-4
0.200, -7.541e-6, -1.988e-4
0.199, -7.527e-6, -2.025e-4
0.198, -7.508e-6, -2.063e-4
0.197, -7.484e-6, -2.100e-4
0.196, -7.465e-6, -2.138e-4
0.195, -7.439e-6, -2.175e-4
0.194, -7.419e-6, -2.212e-4
0.193, -7.391e-6, -2.249e-4
0.192, -7.367e-6, -2.286e-4
0.191, -7.340e-6, -2.322e-4
0.190, -7.314e-6, -2.359e-4
0.189, -7.287e-6, -2.395e-4
0.188, -7.262e-6, -2.432e-4
0.187, -7.234e-6, -2.468e-4
0.186, -7.205e-6, -2.504e-4
0.185, -7.177e-6, -2.540e-4
0.184, -7.148e-6, -2.576e-4
0.183, -7.121e-6, -2.611e-4
0.182, -7.090e-6, -2.647e-4
0.181, -7.063e-6, -2.682e-4
0.180, -7.036e-6, -2.717e-4
0.179, -7.004e-6, -2.752e-4
0.178, -6.975e-6, -2.787e-4
0.177, -6.946e-6, -2.822e-4
0.176, -6.918e-6, -2.856e-4
0.175, -6.885e-6, -2.891e-4
0.174, -6.857e-6, -2.925e-4
0.173, -6.829e-6, -2.959e-4
0.172, -6.800e-6, -2.993e-4
0.171, -6.773e-6, -3.027e-4
0.170, -6.745e-6, -3.061e-4
0.169, -6.718e-6, -3.094e-4
0.168, -6.689e-6, -3.128e-4
0.167, -6.664e-6, -3.161e-4
0.166, -6.639e-6, -3.194e-4
0.165, -6.611e-6, -3.227e-4
0.164, -6.585e-6, -3.260e-4
0.163, -6.559e-6, -3.293e-4
0.162, -6.535e-6, -3.326e-4
0.161, -6.509e-6, -3.358e-4
0.160, -6.486e-6, -3.391e-4
0.159, -6.462e-6, -3.423e-4
0.158, -6.439e-6, -3.455e-4
0.157, -6.416e-6, -3.487e-4
0.156, -6.393e-6, -3.519e-4
0.155, -6.370e-6, -3.551e-4
0.154, -6.349e-6, -3.583e-4
0.153, -6.328e-6, -3.615e-4
0.152, -6.307e-6, -3.646e-4
0.151, -6.288e-6, -3.678e-4
0.150, -6.268e-6, -3.709e-4
0.149, -6.248e-6, -3.740e-4
0.148, -6.226e-6, -3.771e-4
0.147, -6.208e-6, -3.802e-4
0.146, -6.191e-6, -3.833e-4
0.145, -6.173e-6, -3.864e-4
0.144, -6.157e-6, -3.895e-4
0.143, -6.142e-6, -3.926e-4
0.142, -6.124e-6, -3.956e-4
0.141, -6.108e-6, -3.987e-4
0.140, -6.094e-6, -4.017e-4
0.139, -6.078e-6, -4.048e-4
0.138, -6.065e-6, -4.078e-4
0.137, -6.052e-6, -4.108e-4
0.136, -6.040e-6, -4.138e-4
0.135, -6.027e-6, -4.169e-4
0.134, -6.016e-6, -4.199e-4
0.133, -6.006e-6, -4.229e-4
0.132, -5.997e-6, -4.259e-4
0.131, -5.986e-6, -4.289e-4
0.130, -5.978e-6, -4.318e-4
0.129, -5.970e-6, -4.348e-4
0.128, -5.961e-6, -4.378e-4
0.127, -5.955e-6, -4.408e-4
0.126, -5.949e-6, -4.438e-4
0.125, -5.943e-6, -4.467e-4
0.124, -5.937e-6, -4.497e-4
0.123, -5.932e-6, -4.527e-4
0.122, -5.928e-6, -4.556e-4
0.121, -5.925e-6, -4.586e-4
0.120, -5.922e-6, -4.616e-4
0.119, -5.919e-6, -4.645e-4
0.118, -5.917e-6, -4.675e-4
0.117, -5.916e-6, -4.704e-4
0.116, -5.915e-6, -4.734e-4
0.115, -5.916e-6, -4.763e-4
0.114, -5.917e-6, -4.793e-4
0.113, -5.918e-6, -4.823e-4
0.112, -5.921e-6, -4.852e-4
0.111, -5.924e-6, -4.882e-4
0.110, -5.927e-6, -4.912e-4
0.109, -5.931e-6, -4.941e-4
0.108, -5.935e-6, -4.971e-4
0.107, -5.941e-6, -5.001e-4
0.106, -5.949e-6, -5.030e-4
0.105, -5.954e-6, -5.060e-4
0.104, -5.960e-6, -5.090e-4
0.103, -5.969e-6, -5.120e-4
0.102, -5.977e-6, -5.150e-4
0.101, -5.985e-6, -5.180e-4
0.100, -5.996e-6, -5.210e-4
0.099, -6.004e-6, -5.240e-4
0.098, -6.015e-6, -5.270e-4
0.097, -6.026e-6, -5.300e-4
0.096, -6.037e-6, -5.330e-4
0.095, -6.051e-6, -5.360e-4
0.094, -6.063e-6, -5.390e-4
0.093, -6.076e-6, -5.421e-4
0.092, -6.090e-6, -5.451e-4
0.091, -6.104e-6, -5.482e-4
0.090, -6.119e-6, -5.512e-4
0.089, -6.135e-6, -5.543e-4
0.088, -6.151e-6, -5.574e-4
0.087, -6.166e-6, -5.605e-4
0.086, -6.181e-6, -5.636e-4
0.085, -6.197e-6, -5.667e-4
0.084, -6.213e-6, -5.698e-4
0.083, -6.230e-6, -5.729e-4
0.082, -6.249e-6, -5.760e-4
0.081, -6.265e-6, -5.791e-4
0.080, -6.281e-6, -5.823e-4
0.079, -6.297e-6, -5.854e-4
0.078, -6.314e-6, -5.886e-4
0.077, -6.330e-6, -5.917e-4
0.076, -6.345e-6, -5.949e-4
0.075, -6.362e-6, -5.981e-4
0.074, -6.375e-6, -6.013e-4
0.073, -6.391e-6, -6.045e-4
0.072, -6.405e-6, -6.077e-4
0.071, -6.419e-6, -6.109e-4
0.070, -6.434e-6, -6.141e-4
0.069, -6.445e-6, -6.173e-4
0.068, -6.458e-6, -6.206e-4
0.067, -6.468e-6, -6.238e-4
0.066, -6.480e-6, -6.270e-4
0.065, -6.490e-6, -6.303e-4
0.064, -6.498e-6, -6.335e-4
0.063, -6.507e-6, -6.368e-4
0.062, -6.515e-6, -6.400e-4
0.061, -6.522e-6, -6.433e-4
0.060, -6.530e-6, -6.466e-4
0.059, -6.536e-6, -6.498e-4
0.058, -6.539e-6, -6.531e-4
0.057, -6.542e-6, -6.564e-4
0.056, -6.546e-6, -6.597e-4
0.055, -6.548e-6, -6.629e-4
0.054, -6.551e-6, -6.662e-4
0.053, -6.553e-6, -6.695e-4
0.052, -6.553e-6, -6.728e-4
0.051, -6.553e-6, -6.760e-4
0.050, -6.552e-6, -6.793e-4
0.049, -6.550e-6, -6.826e-4
0.048, -6.549e-6, -6.859e-4
0.047, -6.546e-6, -6.891e-4
0.046, -6.543e-6, -6.924e-4
0.045, -6.541e-6, -6.957e-4
0.044, -6.539e-6, -6.989e-4
0.043, -6.536e-6, -7.022e-4
0.042, -6.531e-6, -7.055e-4
0.041, -6.525e-6, -7.087e-4
0.040, -6.520e-6, -7.120e-4
0.039, -6.515e-6, -7.153e-4
0.038, -6.510e-6, -7.185e-4
0.037, -6.504e-6, -7.218e-4
0.036, -6.497e-6, -7.250e-4
0.035, -6.492e-6, -7.283e-4
0.034, -6.487e-6, -7.315e-4
0.033, -6.480e-6, -7.347e-4
0.032, -6.473e-6, -7.380e-4
0.031, -6.467e-6, -7.412e-4
0.030, -6.462e-6, -7.444e-4
0.029, -6.454e-6, -7.477e-4
0.028, -6.447e-6, -7.509e-4
0.027, -6.442e-6, -7.541e-4
0.026, -6.437e-6, -7.573e-4
0.025, -6.430e-6, -7.605e-4
0.024, -6.422e-6, -7.638e-4
0.023, -6.416e-6, -7.670e-4
0.022, -6.410e-6, -7.702e-4
0.021, -6.402e-6, -7.734e-4
0.020, -6.396e-6, -7.766e-4
0.019, -6.391e-6, -7.798e-4
0.018, -6.385e-6, -7.830e-4
0.017, -6.378e-6, -7.861e-4
0.016, -6.372e-6, -7.893e-4
0.015, -6.367e-6, -7.925e-4
0.014, -6.362e-6, -7.957e-4
0.013, -6.356e-6, -7.989e-4
0.012, -6.350e-6, -8.020e-4
0.011, -6.346e-6, -8.052e-4
0.010, -6.342e-6, -8.084e-4
0.009, -6.337e-6, -8.116e-4
0.008, -6.332e-6, -8.147e-4
0.007, -6.326e-6, -8.179e-4
0.006, -6.321e-6, -8.210e-4
0.005, -6.318e-6, -8.242e-4
0.004, -6.315e-6, -8.274e-4
0.003, -6.310e-6, -8.305e-4
0.002, -6.305e-6, -8.337e-4
0.001, -6.301e-6, -8.368e-4
-0.000, -6.298e-6, -8.400e-4
-0.001, -6.296e-6, -8.431e-4
-0.002, -6.293e-6, -8.463e-4
-0.003, -6.291e-6, -8.494e-4
-0.004, -6.289e-6, -8.526e-4
-0.005, -6.286e-6, -8.557e-4
-0.006, -6.284e-6, -8.588e-4
-0.007, -6.281e-6, -8.620e-4
-0.008, -6.279e-6, -8.651e-4
-0.009, -6.277e-6, -8.683e-4
-0.010, -6.276e-6, -8.714e-4
-0.011, -6.274e-6, -8.745e-4
-0.012, -6.273e-6, -8.777e-4
-0.013, -6.272e-6, -8.808e-4
-0.014, -6.272e-6, -8.839e-4
-0.015, -6.271e-6, -8.871e-4
-0.016, -6.271e-6, -8.902e-4
-0.017, -6.270e-6, -8.934e-4
-0.018, -6.270e-6, -8.965e-4
-0.019, -6.270e-6, -8.996e-4
-0.020, -6.270e-6, -9.028e-4
-0.021, -6.271e-6, -9.059e-4
-0.022, -6.271e-6, -9.090e-4
-0.023, -6.271e-6, -9.122e-4
-0.024, -6.272e-6, -9.153e-4
-0.025, -6.272e-6, -9.184e-4
-0.026, -6.273e-6, -9.216e-4
-0.027, -6.274e-6, -9.247e-4
-0.028, -6.274e-6, -9.278e-4
-0.029, -6.275e-6, -9.310e-4
-0.030, -6.277e-6, -9.341e-4
-0.031, -6.278e-6, -9.373e-4
-0.032, -6.279e-6, -9.404e-4
-0.033, -6.281e-6, -9.435e-4
-0.034, -6.283e-6, -9.467e-4
-0.035, -6.285e-6, -9.498e-4
-0.036, -6.287e-6, -9.530e-4
-0.037, -6.289e-6, -9.561e-4
-0.038, -6.290e-6, -9.593e-4
-0.039, -6.292e-6, -9.624e-4
-0.040, -6.293e-6, -9.655e-4
-0.041, -6.294e-6, -9.687e-4
-0.042, -6.296e-6, -9.718e-4
-0.043, -6.297e-6, -9.750e-4
-0.044, -6.298e-6, -9.781e-4
-0.045, -6.300e-6, -9.813e-4
-0.046, -6.302e-6, -9.844e-4
-0.047, -6.304e-6, -9.876e-4
-0.048, -6.306e-6, -9.907e-4
-0.049, -6.309e-6, -9.939e-4
-0.050, -6.310e-6, -9.971e-4
-0.051, -6.311e-6, -1.000e-3
-0.052, -6.314e-6, -1.003e-3
-0.053, -6.314e-6, -1.007e-3
-0.054, -6.316e-6, -1.010e-3
-0.055, -6.317e-6, -1.013e-3
-0.056, -6.319e-6, -1.016e-3
-0.057, -6.320e-6, -1.019e-3
-0.058, -6.321e-6, -1.022e-3
-0.059, -6.322e-6, -1.025e-3
-0.060, -6.323e-6, -1.029e-3
-0.061, -6.324e-6, -1.032e-3
-0.062, -6.326e-6, -1.035e-3
-0.063, -6.326e-6, -1.038e-3
-0.064, -6.327e-6, -1.041e-3
-0.065, -6.328e-6, -1.044e-3
-0.066, -6.329e-6, -1.048e-3
-0.067, -6.330e-6, -1.051e-3
-0.068, -6.332e-6, -1.054e-3
-0.069, -6.333e-6, -1.057e-3
-0.070, -6.333e-6, -1.060e-3
-0.071, -6.334e-6, -1.063e-3
-0.072, -6.335e-6, -1.067e-3
-0.073, -6.336e-6, -1.070e-3
-0.074, -6.336e-6, -1.073e-3
-0.075, -6.336e-6, -1.076e-3
-0.076, -6.337e-6, -1.079e-3
-0.077, -6.337e-6, -1.082e-3
-0.078, -6.337e-6, -1.086e-3
-0.079, -6.338e-6, -1.089e-3
-0.080, -6.338e-6, -1.092e-3
-0.081, -6.338e-6, -1.095e-3
-0.082, -6.338e-6, -1.098e-3
-0.083, -6.338e-6, -1.101e-3
-0.084, -6.339e-6, -1.105e-3
-0.085, -6.339e-6, -1.108e-3
-0.086, -6.339e-6, -1.111e-3
-0.087, -6.339e-6, -1.114e-3
-0.088, -6.339e-6, -1.117e-3
-0.089, -6.339e-6, -1.120e-3
-0.090, -6.339e-6, -1.124e-3
-0.091, -6.339e-6, -1.127e-3
-0.092, -6.339e-6, -1.130e-3
-0.093, -6.339e-6, -1.133e-3
-0.094, -6.339e-6, -1.136e-3
-0.095, -6.338e-6, -1.140e-3
-0.096, -6.338e-6, -1.143e-3
-0.097, -6.339e-6, -1.146e-3
-0.098, -6.338e-6, -1.149e-3
-0.099, -6.338e-6, -1.152e-3
-0.100, -6.334e-6, -1.155e-3

Segment 2:
-0.099, -6.328e-6, -1.159e-3
-0.098, -6.325e-6, -1.162e-3
-0.097, -6.323e-6, -1.165e-3
-0.096, -6.321e-6, -1.168e-3
-0.095, -6.320e-6, -1.171e-3
-0.094, -6.318e-6, -1.174e-3
-0.093, -6.317e-6, -1.177e-3
-0.092, -6.315e-6, -1.181e-3
-0.091, -6.314e-6, -1.184e-3
-0.090, -6.313e-6, -1.187e-3
-0.089, -6.311e-6, -1.190e-3
-0.088, -6.309e-6, -1.193e-3
-0.087, -6.308e-6, -1.196e-3
-0.086, -6.307e-6, -1.200e-3
-0.085, -6.305e-6, -1.203e-3
-0.084, -6.304e-6, -1.206e-3
-0.083, -6.302e-6, -1.209e-3
-0.082, -6.301e-6, -1.212e-3
-0.081, -6.301e-6, -1.215e-3
-0.080, -6.300e-6, -1.218e-3
-0.079, -6.299e-6, -1.222e-3
-0.078, -6.298e-6, -1.225e-3
-0.077, -6.297e-6, -1.228e-3
-0.076, -6.297e-6, -1.231e-3
-0.075, -6.296e-6, -1.234e-3
-0.074, -6.295e-6, -1.237e-3
-0.073, -6.295e-6, -1.241e-3
-0.072, -6.294e-6, -1.244e-3
-0.071, -6.294e-6, -1.247e-3
-0.070, -6.293e-6, -1.250e-3
-0.069, -6.293e-6, -1.253e-3
-0.068, -6.292e-6, -1.256e-3
-0.067, -6.292e-6, -1.259e-3
-0.066, -6.291e-6, -1.263e-3
-0.065, -6.291e-6, -1.266e-3
-0.064, -6.290e-6, -1.269e-3
-0.063, -6.290e-6, -1.272e-3
-0.062, -6.289e-6, -1.275e-3
-0.061, -6.289e-6, -1.278e-3
-0.060, -6.288e-6, -1.281e-3
-0.059, -6.288e-6, -1.285e-3
-0.058, -6.287e-6, -1.288e-3
-0.057, -6.286e-6, -1.291e-3
-0.056, -6.286e-6, -1.294e-3
-0.055, -6.285e-6, -1.297e-3
-0.054, -6.285e-6, -1.300e-3
-0.053, -6.284e-6, -1.303e-3
-0.052, -6.284e-6, -1.307e-3
-0.051, -6.284e-6, -1.310e-3
-0.050, -6.284e-6, -1.313e-3
-0.049, -6.283e-6, -1.316e-3
-0.048, -6.282e-6, -1.319e-3
-0.047, -6.282e-6, -1.322e-3
-0.046, -6.282e-6, -1.325e-3
-0.045, -6.282e-6, -1.329e-3
-0.044, -6.281e-6, -1.332e-3
-0.043, -6.281e-6, -1.335e-3
-0.042, -6.280e-6, -1.338e-3
-0.041, -6.280e-6, -1.341e-3
-0.040, -6.279e-6, -1.344e-3
-0.039, -6.279e-6, -1.347e-3
-0.038, -6.278e-6, -1.351e-3
-0.037, -6.278e-6, -1.354e-3
-0.036, -6.277e-6, -1.357e-3
-0.035, -6.278e-6, -1.360e-3
-0.034, -6.277e-6, -1.363e-3
-0.033, -6.277e-6, -1.366e-3
-0.032, -6.277e-6, -1.369e-3
-0.031, -6.277e-6, -1.372e-3
-0.030, -6.277e-6, -1.376e-3
-0.029, -6.276e-6, -1.379e-3
-0.028, -6.276e-6, -1.382e-3
-0.027, -6.276e-6, -1.385e-3
-0.026, -6.275e-6, -1.388e-3
-0.025, -6.274e-6, -1.391e-3
-0.024, -6.274e-6, -1.394e-3
-0.023, -6.274e-6, -1.398e-3
-0.022, -6.274e-6, -1.401e-3
-0.021, -6.273e-6, -1.404e-3
-0.020, -6.273e-6, -1.407e-3
-0.019, -6.273e-6, -1.410e-3
-0.018, -6.273e-6, -1.413e-3
-0.017, -6.272e-6, -1.416e-3
-0.016, -6.272e-6, -1.420e-3
-0.015, -6.271e-6, -1.423e-3
-0.014, -6.272e-6, -1.426e-3
-0.013, -6.271e-6, -1.429e-3
-0.012, -6.271e-6, -1.432e-3
-0.011, -6.271e-6, -1.435e-3
-0.010, -6.271e-6, -1.438e-3
-0.009, -6.270e-6, -1.441e-3
-0.008, -6.270e-6, -1.445e-3
-0.007, -6.270e-6, -1.448e-3
-0.006, -6.270e-6, -1.451e-3
-0.005, -6.270e-6, -1.454e-3
-0.004, -6.270e-6, -1.457e-3
-0.003, -6.270e-6, -1.460e-3
-0.002, -6.270e-6, -1.463e-3
-0.001, -6.270e-6, -1.467e-3
0.000, -6.269e-6, -1.470e-3
0.001, -6.269e-6, -1.473e-3
0.002, -6.269e-6, -1.476e-3
0.003, -6.268e-6, -1.479e-3
0.004, -6.268e-6, -1.482e-3
0.005, -6.268e-6, -1.485e-3
0.006, -6.268e-6, -1.489e-3
0.007, -6.267e-6, -1.492e-3
0.008, -6.267e-6, -1.495e-3
0.009, -6.267e-6, -1.498e-3
0.010, -6.267e-6, -1.501e-3
0.011, -6.267e-6, -1.504e-3
0.012, -6.266e-6, -1.507e-3
0.013, -6.266e-6, -1.510e-3
0.014, -6.266e-6, -1.514e-3
0.015, -6.266e-6, -1.517e-3
0.016, -6.266e-6, -1.520e-3
0.017, -6.266e-6, -1.523e-3
0.018, -6.265e-6, -1.526e-3
0.019, -6.265e-6, -1.529e-3
0.020, -6.265e-6, -1.532e-3
0.021, -6.264e-6, -1.536e-3
0.022, -6.264e-6, -1.539e-3
0.023, -6.264e-6, -1.542e-3
0.024, -6.264e-6, -1.545e-3
0.025, -6.263e-6, -1.548e-3
0.026, -6.263e-6, -1.551e-3
0.027, -6.263e-6, -1.554e-3
0.028, -6.263e-6, -1.557e-3
0.029, -6.263e-6, -1.561e-3
0.030, -6.262e-6, -1.564e-3
0.031, -6.262e-6, -1.567e-3
0.032, -6.262e-6, -1.570e-3
0.033, -6.262e-6, -1.573e-3
0.034, -6.262e-6, -1.576e-3
0.035, -6.261e-6, -1.579e-3
0.036, -6.261e-6, -1.582e-3
0.037, -6.261e-6, -1.586e-3
0.038, -6.261e-6, -1.589e-3
0.039, -6.261e-6, -1.592e-3
0.040, -6.260e-6, -1.595e-3
0.041, -6.260e-6, -1.598e-3
0.042, -6.259e-6, -1.601e-3
0.043, -6.259e-6, -1.604e-3
0.044, -6.259e-6, -1.608e-3
0.045, -6.258e-6, -1.611e-3
0.046, -6.258e-6, -1.614e-3
0.047, -6.257e-6, -1.617e-3
0.048, -6.256e-6, -1.620e-3
0.049, -6.256e-6, -1.623e-3
0.050, -6.255e-6, -1.626e-3
0.051, -6.254e-6, -1.629e-3
0.052, -6.254e-6, -1.633e-3
0.053, -6.253e-6, -1.636e-3
0.054, -6.253e-6, -1.639e-3
0.055, -6.252e-6, -1.642e-3
0.056, -6.252e-6, -1.645e-3
0.057, -6.251e-6, -1.648e-3
0.058, -6.250e-6, -1.651e-3
0.059, -6.250e-6, -1.654e-3
0.060, -6.249e-6, -1.658e-3
0.061, -6.249e-6, -1.661e-3
0.062, -6.248e-6, -1.664e-3
0.063, -6.247e-6, -1.667e-3
0.064, -6.246e-6, -1.670e-3
0.065, -6.246e-6, -1.673e-3
0.066, -6.245e-6, -1.676e-3
0.067, -6.245e-6, -1.679e-3
0.068, -6.244e-6, -1.683e-3
0.069, -6.243e-6, -1.686e-3
0.070, -6.242e-6, -1.689e-3
0.071, -6.240e-6, -1.692e-3
0.072, -6.239e-6, -1.695e-3
0.073, -6.238e-6, -1.698e-3
0.074, -6.236e-6, -1.701e-3
0.075, -6.235e-6, -1.704e-3
0.076, -6.234e-6, -1.707e-3
0.077, -6.232e-6, -1.711e-3
0.078, -6.230e-6, -1.714e-3
0.079, -6.229e-6, -1.717e-3
0.080, -6.226e-6, -1.720e-3
0.081, -6.225e-6, -1.723e-3
0.082, -6.224e-6, -1.726e-3
0.083, -6.222e-6, -1.729e-3
0.084, -6.221e-6, -1.732e-3
0.085, -6.220e-6, -1.735e-3
0.086, -6.218e-6, -1.739e-3
0.087, -6.217e-6, -1.742e-3
0.088, -6.215e-6, -1.745e-3
0.089, -6.213e-6, -1.748e-3
0.090, -6.211e-6, -1.751e-3
0.091, -6.209e-6, -1.754e-3
0.092, -6.206e-6, -1.757e-3
0.093, -6.204e-6, -1.760e-3
0.094, -6.202e-6, -1.763e-3
0.095, -6.200e-6, -1.767e-3
0.096, -6.198e-6, -1.770e-3
0.097, -6.196e-6, -1.773e-3
0.098, -6.193e-6, -1.776e-3
0.099, -6.191e-6, -1.779e-3
0.100, -6.187e-6, -1.782e-3
0.101, -6.185e-6, -1.785e-3
0.102, -6.181e-6, -1.788e-3
0.103, -6.178e-6, -1.791e-3
0.104, -6.175e-6, -1.794e-3
0.105, -6.173e-6, -1.797e-3
0.106, -6.170e-6, -1.801e-3
0.107, -6.167e-6, -1.804e-3
0.108, -6.164e-6, -1.807e-3
0.109, -6.160e-6, -1.810e-3
0.110, -6.156e-6, -1.813e-3
0.111, -6.152e-6, -1.816e-3
0.112, -6.148e-6, -1.819e-3
0.113, -6.145e-6, -1.822e-3
0.114, -6.140e-6, -1.825e-3
0.115, -6.135e-6, -1.828e-3
0.116, -6.129e-6, -1.831e-3
0.117, -6.123e-6, -1.834e-3
0.118, -6.118e-6, -1.837e-3
0.119, -6.113e-6, -1.840e-3
0.120, -6.107e-6, -1.844e-3
0.121, -6.102e-6, -1.847e-3
0.122, -6.098e-6, -1.850e-3
0.123, -6.092e-6, -1.853e-3
0.124, -6.085e-6, -1.856e-3
0.125, -6.078e-6, -1.859e-3
0.126, -6.072e-6, -1.862e-3
0.127, -6.065e-6, -1.865e-3
0.128, -6.057e-6, -1.868e-3
0.129, -6.051e-6, -1.871e-3
0.130, -6.042e-6, -1.874e-3
0.131, -6.034e-6, -1.877e-3
0.132, -6.026e-6, -1.880e-3
0.133, -6.019e-6, -1.883e-3
0.134, -6.010e-6, -1.886e-3
0.135, -6.000e-6, -1.889e-3
0.136, -5.991e-6, -1.892e-3
0.137, -5.981e-6, -1.895e-3
0.138, -5.972e-6, -1.898e-3
0.139, -5.961e-6, -1.901e-3
0.140, -5.952e-6, -1.904e-3
0.141, -5.940e-6, -1.907e-3
0.142, -5.928e-6, -1.910e-3
0.143, -5.917e-6, -1.913e-3
0.144, -5.904e-6, -1.916e-3
0.145, -5.892e-6, -1.919e-3
0.146, -5.878e-6, -1.922e-3
0.147, -5.864e-6, -1.925e-3
0.148, -5.851e-6, -1.927e-3
0.149, -5.835e-6, -1.930e-3
0.150, -5.819e-6, -1.933e-3
0.151, -5.805e-6, -1.936e-3
0.152, -5.788e-6, -1.939e-3
0.153, -5.771e-6, -1.942e-3
0.154, -5.753e-6, -1.945e-3
0.155, -5.734e-6, -1.948e-3
0.156, -5.716e-6, -1.951e-3
0.157, -5.698e-6, -1.953e-3
0.158, -5.678e-6, -1.956e-3
0.159, -5.656e-6, -1.959e-3
0.160, -5.634e-6, -1.962e-3
0.161, -5.611e-6, -1.965e-3
0.162, -5.590e-6, -1.968e-3
0.163, -5.566e-6, -1.970e-3
0.164, -5.541e-6, -1.973e-3
0.165, -5.515e-6, -1.976e-3
0.166, -5.489e-6, -1.979e-3
0.167, -5.462e-6, -1.981e-3
0.168, -5.433e-6, -1.984e-3
0.169, -5.403e-6, -1.987e-3
0.170, -5.372e-6, -1.989e-3
0.171, -5.335e-6, -1.992e-3
0.172, -5.302e-6, -1.995e-3
0.173, -5.269e-6, -1.997e-3
0.174, -5.233e-6, -2.000e-3
0.175, -5.198e-6, -2.003e-3
0.176, -5.162e-6, -2.005e-3
0.177, -5.122e-6, -2.008e-3
0.178, -5.084e-6, -2.010e-3
0.179, -5.041e-6, -2.013e-3
0.180, -4.999e-6, -2.015e-3
0.181, -4.954e-6, -2.018e-3
0.182, -4.909e-6, -2.020e-3
0.183, -4.864e-6, -2.023e-3
0.184, -4.814e-6, -2.025e-3
0.185, -4.765e-6, -2.027e-3
0.186, -4.711e-6, -2.030e-3
0.187, -4.660e-6, -2.032e-3
0.188, -4.603e-6, -2.034e-3
0.189, -4.546e-6, -2.037e-3
0.190, -4.488e-6, -2.039e-3
0.191, -4.428e-6, -2.041e-3
0.192, -4.366e-6, -2.043e-3
0.193, -4.303e-6, -2.045e-3
0.194, -4.239e-6, -2.048e-3
0.195, -4.169e-6, -2.050e-3
0.196, -4.100e-6, -2.052e-3
0.197, -4.028e-6, -2.054e-3
0.198, -3.954e-6, -2.056e-3
0.199, -3.877e-6, -2.058e-3
0.200, -3.802e-6, -2.060e-3
0.201, -3.714e-6, -2.061e-3
0.202, -3.632e-6, -2.063e-3
0.203, -3.547e-6, -2.065e-3
0.204, -3.462e-6, -2.067e-3
0.205, -3.381e-6, -2.068e-3
0.206, -3.285e-6, -2.070e-3
0.207, -3.189e-6, -2.072e-3
0.208, -3.095e-6, -2.073e-3
0.209, -2.994e-6, -2.075e-3
0.210, -2.898e-6, -2.076e-3
0.211, -2.791e-6, -2.078e-3
0.212, -2.682e-6, -2.079e-3
0.213, -2.576e-6, -2.080e-3
0.214, -2.467e-6, -2.081e-3
0.215, -2.353e-6, -2.083e-3
0.216, -2.238e-6, -2.084e-3
0.217, -2.112e-6, -2.085e-3
0.218, -1.994e-6, -2.086e-3
0.219, -1.868e-6, -2.087e-3
0.220, -1.750e-6, -2.088e-3
0.221, -1.621e-6, -2.088e-3
0.222, -1.489e-6, -2.089e-3
0.223, -1.355e-6, -2.090e-3
0.224, -1.221e-6, -2.090e-3
0.225, -1.089e-6, -2.091e-3
0.226, -9.534e-7, -2.091e-3
0.227, -8.076e-7, -2.092e-3
0.228, -6.628e-7, -2.092e-3
0.229, -5.191e-7, -2.092e-3
0.230, -3.696e-7, -2.093e-3
0.231, -2.211e-7, -2.093e-3
0.232, -7.400e-8, -2.093e-3
0.233, 8.323e-8, -2.093e-3
0.234, 2.404e-7, -2.093e-3
0.235, 3.951e-7, -2.092e-3
0.236, 5.608e-7, -2.092e-3
0.237, 7.104e-7, -2.092e-3
0.238, 8.711e-7, -2.091e-3
0.239, 1.030e-6, -2.091e-3
0.240, 1.188e-6, -2.090e-3
0.241, 1.346e-6, -2.090e-3
0.242, 1.514e-6, -2.089e-3
0.243, 1.674e-6, -2.088e-3
0.244, 1.830e-6, -2.087e-3
0.245, 1.991e-6, -2.086e-3
0.246, 2.159e-6, -2.085e-3
0.247, 2.318e-6, -2.084e-3
0.248, 2.481e-6, -2.083e-3
0.249, 2.646e-6, -2.081e-3
0.250, 2.810e-6, -2.080e-3
0.251, 2.962e-6, -2.078e-3
0.252, 3.119e-6, -2.077e-3
0.253, 3.278e-6, -2.075e-3
0.254, 3.432e-6, -2.073e-3
0.255, 3.581e-6, -2.072e-3
0.256, 3.742e-6, -2.070e-3
0.257, 3.898e-6, -2.068e-3
0.258, 4.046e-6, -2.066e-3
0.259, 4.197e-6, -2.064e-3
0.260, 4.335e-6, -2.062e-3
0.261, 4.477e-6, -2.059e-3
0.262, 4.620e-6, -2.057e-3
0.263, 4.761e-6, -2.055e-3
0.264, 4.897e-6, -2.052e-3
0.265, 5.028e-6, -2.050e-3
0.266, 5.160e-6, -2.047e-3
0.267, 5.283e-6, -2.044e-3
0.268, 5.406e-6, -2.042e-3
0.269, 5.528e-6, -2.039e-3
0.270, 5.644e-6, -2.036e-3
0.271, 5.766e-6, -2.033e-3
0.272, 5.870e-6, -2.030e-3
0.273, 5.973e-6, -2.027e-3
0.274, 6.072e-6, -2.024e-3
0.275, 6.194e-6, -2.021e-3
0.276, 6.654e-6, -2.018e-3
0.277, 6.633e-6, -2.015e-3
0.278, 7.136e-6, -2.011e-3
0.279, 7.242e-6, -2.007e-3
0.280, 7.320e-6, -2.004e-3
0.281, 7.331e-6, -2.000e-3
0.282, 7.317e-6, -1.996e-3
0.283, 7.297e-6, -1.993e-3
0.284, 7.271e-6, -1.989e-3
0.285, 7.258e-6, -1.985e-3
0.286, 7.244e-6, -1.982e-3
0.287, 7.238e-6, -1.978e-3
0.288, 7.235e-6, -1.975e-3
0.289, 7.239e-6, -1.971e-3
0.290, 7.239e-6, -1.967e-3
0.291, 7.246e-6, -1.964e-3
0.292, 7.247e-6, -1.960e-3
0.293, 7.252e-6, -1.957e-3
0.294, 7.263e-6, -1.953e-3
0.295, 7.267e-6, -1.949e-3
0.296, 7.275e-6, -1.946e-3
0.297, 7.280e-6, -1.942e-3
0.298, 7.281e-6, -1.938e-3
0.299, 7.285e-6, -1.935e-3
0.300, 7.286e-6, -1.931e-3
0.301, 7.286e-6, -1.927e-3
0.302, 7.284e-6, -1.924e-3
0.303, 7.279e-6, -1.920e-3
0.304, 7.272e-6, -1.916e-3
0.305, 7.263e-6, -1.913e-3
0.306, 7.257e-6, -1.909e-3
0.307, 7.250e-6, -1.906e-3
0.308, 7.241e-6, -1.902e-3
0.309, 7.220e-6, -1.898e-3
0.310, 7.206e-6, -1.895e-3
0.311, 7.194e-6, -1.891e-3
0.312, 7.175e-6, -1.888e-3
0.313, 7.156e-6, -1.884e-3
0.314, 7.136e-6, -1.880e-3
0.315, 7.108e-6, -1.877e-3
0.316, 7.085e-6, -1.873e-3
0.317, 7.063e-6, -1.870e-3
0.318, 7.035e-6, -1.866e-3
0.319, 7.009e-6, -1.863e-3
0.320, 6.984e-6, -1.859e-3
0.321, 6.958e-6, -1.856e-3
0.322, 6.930e-6, -1.852e-3
0.323, 6.903e-6, -1.849e-3
0.324, 6.873e-6, -1.845e-3
0.325, 6.844e-6, -1.842e-3
0.326, 6.814e-6, -1.839e-3
0.327, 6.786e-6, -1.835e-3
0.328, 6.751e-6, -1.832e-3
0.329, 6.719e-6, -1.829e-3
0.330, 6.688e-6, -1.825e-3
0.331, 6.655e-6, -1.822e-3
0.332, 6.622e-6, -1.819e-3
0.333, 6.589e-6, -1.815e-3
0.334, 6.555e-6, -1.812e-3
0.335, 6.525e-6, -1.809e-3
0.336, 6.491e-6, -1.805e-3
0.337, 6.458e-6, -1.802e-3
0.338, 6.423e-6, -1.799e-3
0.339, 6.390e-6, -1.796e-3
0.340, 6.358e-6, -1.793e-3
0.341, 6.322e-6, -1.789e-3
0.342, 6.290e-6, -1.786e-3
0.343, 6.256e-6, -1.783e-3
0.344, 6.221e-6, -1.780e-3
0.345, 6.190e-6, -1.777e-3
0.346, 6.157e-6, -1.774e-3
0.347, 6.125e-6, -1.771e-3
0.348, 6.093e-6, -1.768e-3
0.349, 6.061e-6, -1.765e-3
0.350, 6.029e-6, -1.762e-3
0.351, 5.999e-6, -1.759e-3
0.352, 5.967e-6, -1.756e-3
0.353, 5.937e-6, -1.753e-3
0.354, 5.907e-6, -1.750e-3
0.355, 5.877e-6, -1.747e-3
0.356, 5.846e-6, -1.744e-3
0.357, 5.818e-6, -1.741e-3
0.358, 5.788e-6, -1.738e-3
0.359, 5.759e-6, -1.735e-3
0.360, 5.731e-6, -1.732e-3
0.361, 5.702e-6, -1.730e-3
0.362, 5.675e-6, -1.727e-3
0.363, 5.647e-6, -1.724e-3
0.364, 5.619e-6, -1.721e-3
0.365, 5.589e-6, -1.718e-3
0.366, 5.561e-6, -1.716e-3
0.367, 5.535e-6, -1.713e-3
0.368, 5.509e-6, -1.710e-3
0.369, 5.484e-6, -1.707e-3
0.370, 5.457e-6, -1.705e-3
0.371, 5.433e-6, -1.702e-3
0.372, 5.409e-6, -1.699e-3
0.373, 5.384e-6, -1.696e-3
0.374, 5.360e-6, -1.694e-3
0.375, 5.338e-6, -1.691e-3
0.376, 5.315e-6, -1.688e-3
0.377, 5.293e-6, -1.686e-3
0.378, 5.270e-6, -1.683e-3
0.379, 5.248e-6, -1.681e-3
0.380, 5.227e-6, -1.678e-3
0.381, 5.205e-6, -1.675e-3
0.382, 5.185e-6, -1.673e-3
0.383, 5.164e-6, -1.670e-3
0.384, 5.144e-6, -1.668e-3
0.385, 5.125e-6, -1.665e-3
0.386, 5.106e-6, -1.662e-3
0.387, 5.085e-6, -1.660e-3
0.388, 5.066e-6, -1.657e-3
0.389, 5.048e-6, -1.655e-3
0.390, 5.030e-6, -1.652e-3
0.391, 5.011e-6, -1.650e-3
0.392, 4.994e-6, -1.647e-3
0.393, 4.977e-6, -1.645e-3
0.394, 4.960e-6, -1.642e-3
0.395, 4.943e-6, -1.640e-3
0.396, 4.927e-6, -1.637e-3
0.397, 4.912e-6, -1.635e-3
0.398, 4.896e-6, -1.633e-3
0.399, 4.880e-6, -1.630e-3
0.400, 4.864e-6, -1.628e-3
0.401, 4.849e-6, -1.625e-3
0.402, 4.835e-6, -1.623e-3
0.403, 4.820e-6, -1.620e-3
0.404, 4.806e-6, -1.618e-3
0.405, 4.791e-6, -1.616e-3
0.406, 4.776e-6, -1.613e-3
0.407, 4.763e-6, -1.611e-3
0.408, 4.751e-6, -1.608e-3
0.409, 4.738e-6, -1.606e-3
0.410, 4.724e-6, -1.604e-3
0.411, 4.713e-6, -1.601e-3
0.412, 4.700e-6, -1.599e-3
0.413, 4.686e-6, -1.597e-3
0.414, 4.674e-6, -1.594e-3
0.415, 4.664e-6, -1.592e-3
0.416, 4.653e-6, -1.590e-3
0.417, 4.642e-6, -1.587e-3
0.418, 4.630e-6, -1.585e-3
0.419, 4.619e-6, -1.583e-3
0.420, 4.609e-6, -1.580e-3
0.421, 4.599e-6, -1.578e-3
0.422, 4.589e-6, -1.576e-3
0.423, 4.579e-6, -1.574e-3
0.424, 4.569e-6, -1.571e-3
0.425, 4.561e-6, -1.569e-3
0.426, 4.552e-6, -1.567e-3
0.427, 4.543e-6, -1.564e-3
0.428, 4.534e-6, -1.562e-3
0.429, 4.525e-6, -1.560e-3
0.430, 4.518e-6, -1.558e-3
0.431, 4.509e-6, -1.555e-3
0.432, 4.499e-6, -1.553e-3
0.433, 4.492e-6, -1.551e-3
0.434, 4.483e-6, -1.549e-3
0.435, 4.475e-6, -1.546e-3
0.436, 4.469e-6, -1.544e-3
0.437, 4.461e-6, -1.542e-3
0.438, 4.454e-6, -1.540e-3
0.439, 4.446e-6, -1.537e-3
0.440, 4.439e-6, -1.535e-3
0.441, 4.432e-6, -1.533e-3
0.442, 4.426e-6, -1.531e-3
0.443, 4.420e-6, -1.529e-3
0.444, 4.413e-6, -1.526e-3
0.445, 4.407e-6, -1.524e-3
0.446, 4.400e-6, -1.522e-3
0.447, 4.394e-6, -1.520e-3
0.448, 4.388e-6, -1.518e-3
0.449, 4.382e-6, -1.515e-3
0.450, 4.377e-6, -1.513e-3
0.451, 4.372e-6, -1.511e-3
0.452, 4.367e-6, -1.509e-3
0.453, 4.362e-6, -1.507e-3
0.454, 4.356e-6, -1.505e-3
0.455, 4.351e-6, -1.502e-3
0.456, 4.346e-6, -1.500e-3
0.457, 4.341e-6, -1.498e-3
0.458, 4.336e-6, -1.496e-3
0.459, 4.331e-6, -1.494e-3
0.460, 4.327e-6, -1.492e-3
0.461, 4.323e-6, -1.489e-3
0.462, 4.319e-6, -1.487e-3
0.463, 4.314e-6, -1.485e-3
0.464, 4.309e-6, -1.483e-3
0.465, 4.305e-6, -1.481e-3
0.466, 4.301e-6, -1.479e-3
0.467, 4.297e-6, -1.476e-3
0.468, 4.293e-6, -1.474e-3
0.469, 4.289e-6, -1.472e-3
0.470, 4.285e-6, -1.470e-3
0.471, 4.282e-6, -1.468e-3
0.472, 4.278e-6, -1.466e-3
0.473, 4.275e-6, -1.464e-3
0.474, 4.272e-6, -1.461e-3
0.475, 4.269e-6, -1.459e-3
0.476, 4.266e-6, -1.457e-3
0.477, 4.262e-6, -1.455e-3
0.478, 4.259e-6, -1.453e-3
0.479, 4.256e-6, -1.451e-3
0.480, 4.253e-6, -1.449e-3
0.481, 4.250e-6, -1.447e-3
0.482, 4.247e-6, -1.444e-3
0.483, 4.244e-6, -1.442e-3
0.484, 4.241e-6, -1.440e-3
0.485, 4.238e-6, -1.438e-3
0.486, 4.235e-6, -1.436e-3
0.487, 4.233e-6, -1.434e-3
0.488, 4.230e-6, -1.432e-3
0.489, 4.228e-6, -1.430e-3
0.490, 4.226e-6, -1.427e-3
0.491, 4.224e-6, -1.425e-3
0.492, 4.222e-6, -1.423e-3
0.493, 4.219e-6, -1.421e-3
0.494, 4.216e-6, -1.419e-3
0.495, 4.214e-6, -1.417e-3
0.496, 4.212e-6, -1.415e-3
0.497, 4.210e-6, -1.413e-3
0.498, 4.208e-6, -1.411e-3
0.499, 4.206e-6, -1.409e-3
0.500, 4.199e-6, -1.406e-3

Segment 3:
0.499, 4.190e-6, -1.404e-3
0.498, 4.184e-6, -1.402e-3
0.497, 4.180e-6, -1.400e-3
0.496, 4.177e-6, -1.398e-3
0.495, 4.172e-6, -1.396e-3
0.494, 4.169e-6, -1.394e-3
0.493, 4.165e-6, -1.392e-3
0.492, 4.161e-6, -1.390e-3
0.491, 4.158e-6, -1.388e-3
0.490, 4.154e-6, -1.386e-3
0.489, 4.151e-6, -1.383e-3
0.488, 4.148e-6, -1.381e-3
0.487, 4.145e-6, -1.379e-3
0.486, 4.141e-6, -1.377e-3
0.485, 4.138e-6, -1.375e-3
0.484, 4.135e-6, -1.373e-3
0.483, 4.132e-6, -1.371e-3
0.482, 4.131e-6, -1.369e-3
0.481, 4.128e-6, -1.367e-3
0.480, 4.126e-6, -1.365e-3
0.479, 4.123e-6, -1.363e-3
0.478, 4.121e-6, -1.361e-3
0.477, 4.118e-6, -1.359e-3
0.476, 4.115e-6, -1.357e-3
0.475, 4.111e-6, -1.355e-3
0.474, 4.109e-6, -1.353e-3
0.473, 4.106e-6, -1.350e-3
0.472, 4.104e-6, -1.348e-3
0.471, 4.102e-6, -1.346e-3
0.470, 4.100e-6, -1.344e-3
0.469, 4.097e-6, -1.342e-3
0.468, 4.095e-6, -1.340e-3
0.467, 4.092e-6, -1.338e-3
0.466, 4.090e-6, -1.336e-3
0.465, 4.088e-6, -1.334e-3
0.464, 4.086e-6, -1.332e-3
0.463, 4.084e-6, -1.330e-3
0.462, 4.082e-6, -1.328e-3
0.461, 4.080e-6, -1.326e-3
0.460, 4.078e-6, -1.324e-3
0.459, 4.076e-6, -1.322e-3
0.458, 4.074e-6, -1.320e-3
0.457, 4.072e-6, -1.318e-3
0.456, 4.070e-6, -1.316e-3
0.455, 4.068e-6, -1.314e-3
0.454, 4.066e-6, -1.312e-3
0.453, 4.064e-6, -1.310e-3
0.452, 4.061e-6, -1.308e-3
0.451, 4.060e-6, -1.306e-3
0.450, 4.058e-6, -1.304e-3
0.449, 4.056e-6, -1.302e-3
0.448, 4.053e-6, -1.299e-3
0.447, 4.051e-6, -1.297e-3
0.446, 4.049e-6, -1.295e-3
0.445, 4.047e-6, -1.293e-3
0.444, 4.044e-6, -1.291e-3
0.443, 4.043e-6, -1.289e-3
0.442, 4.040e-6, -1.287e-3
0.441, 4.038e-6, -1.285e-3
0.440, 4.036e-6, -1.283e-3
0.439, 4.034e-6, -1.281e-3
0.438, 4.032e-6, -1.279e-3
0.437, 4.030e-6, -1.277e-3
0.436, 4.028e-6, -1.275e-3
0.435, 4.025e-6, -1.273e-3
0.434, 4.023e-6, -1.271e-3
0.433, 4.020e-6, -1.269e-3
0.432, 4.018e-6, -1.267e-3
0.431, 4.015e-6, -1.265e-3
0.430, 4.013e-6, -1.263e-3
0.429, 4.009e-6, -1.261e-3
0.428, 4.006e-6, -1.259e-3
0.427, 4.004e-6, -1.257e-3
0.426, 4.001e-6, -1.255e-3
0.425, 3.997e-6, -1.253e-3
0.424, 3.994e-6, -1.251e-3
0.423, 3.991e-6, -1.249e-3
0.422, 3.988e-6, -1.247e-3
0.421, 3.986e-6, -1.245e-3
0.420, 3.984e-6, -1.243e-3
0.419, 3.981e-6, -1.241e-3
0.418, 3.978e-6, -1.239e-3
0.417, 3.975e-6, -1.237e-3
0.416, 3.972e-6, -1.235e-3
0.415, 3.968e-6, -1.233e-3
0.414, 3.965e-6, -1.231e-3
0.413, 3.962e-6, -1.229e-3
0.412, 3.959e-6, -1.227e-3
0.411, 3.955e-6, -1.225e-3
0.410, 3.952e-6, -1.223e-3
0.409, 3.948e-6, -1.221e-3
0.408, 3.944e-6, -1.219e-3
0.407, 3.940e-6, -1.217e-3
0.406, 3.936e-6, -1.215e-3
0.405, 3.933e-6, -1.214e-3
0.404, 3.929e-6, -1.212e-3
0.403, 3.924e-6, -1.210e-3
0.402, 3.918e-6, -1.208e-3
0.401, 3.914e-6, -1.206e-3
0.400, 3.908e-6, -1.204e-3
0.399, 3.903e-6, -1.202e-3
0.398, 3.897e-6, -1.200e-3
0.397, 3.891e-6, -1.198e-3
0.396, 3.886e-6, -1.196e-3
0.395, 3.882e-6, -1.194e-3
0.394, 3.876e-6, -1.192e-3
0.393, 3.869e-6, -1.190e-3
0.392, 3.863e-6, -1.188e-3
0.391, 3.857e-6, -1.186e-3
0.390, 3.849e-6, -1.184e-3
0.389, 3.842e-6, -1.182e-3
0.388, 3.835e-6, -1.181e-3
0.387, 3.828e-6, -1.179e-3
0.386, 3.821e-6, -1.177e-3
0.385, 3.813e-6, -1.175e-3
0.384, 3.803e-6, -1.173e-3
0.383, 3.794e-6, -1.171e-3
0.382, 3.787e-6, -1.169e-3
0.381, 3.778e-6, -1.167e-3
0.380, 3.768e-6, -1.165e-3
0.379, 3.759e-6, -1.163e-3
0.378, 3.748e-6, -1.162e-3
0.377, 3.738e-6, -1.160e-3
0.376, 3.728e-6, -1.158e-3
0.375, 3.715e-6, -1.156e-3
0.374, 3.703e-6, -1.154e-3
0.373, 3.691e-6, -1.152e-3
0.372, 3.678e-6, -1.150e-3
0.371, 3.666e-6, -1.149e-3
0.370, 3.652e-6, -1.147e-3
0.369, 3.639e-6, -1.145e-3
0.368, 3.624e-6, -1.143e-3
0.367, 3.609e-6, -1.141e-3
0.366, 3.593e-6, -1.140e-3
0.365, 3.576e-6, -1.138e-3
0.364, 3.559e-6, -1.136e-3
0.363, 3.543e-6, -1.134e-3
0.362, 3.525e-6, -1.132e-3
0.361, 3.505e-6, -1.131e-3
0.360, 3.486e-6, -1.129e-3
0.359, 3.466e-6, -1.127e-3
0.358, 3.446e-6, -1.125e-3
0.357, 3.424e-6, -1.124e-3
0.356, 3.402e-6, -1.122e-3
0.355, 3.379e-6, -1.120e-3
0.354, 3.355e-6, -1.119e-3
0.353, 3.331e-6, -1.117e-3
0.352, 3.304e-6, -1.115e-3
0.351, 3.279e-6, -1.114e-3
0.350, 3.251e-6, -1.112e-3
0.349, 3.225e-6, -1.111e-3
0.348, 3.196e-6, -1.109e-3
0.347, 3.167e-6, -1.107e-3
0.346, 3.134e-6, -1.106e-3
0.345, 3.100e-6, -1.104e-3
0.344, 3.067e-6, -1.103e-3
0.343, 3.032e-6, -1.101e-3
0.342, 2.998e-6, -1.100e-3
0.341, 2.961e-6, -1.098e-3
0.340, 2.921e-6, -1.097e-3
0.339, 2.882e-6, -1.095e-3
0.338, 2.841e-6, -1.094e-3
0.337, 2.798e-6, -1.092e-3
0.336, 2.756e-6, -1.091e-3
0.335, 2.711e-6, -1.090e-3
0.334, 2.663e-6, -1.088e-3
0.333, 2.616e-6, -1.087e-3
0.332, 2.567e-6, -1.086e-3
0.331, 2.514e-6, -1.085e-3
0.330, 2.459e-6, -1.083e-3
0.329, 2.403e-6, -1.082e-3
0.328, 2.347e-6, -1.081e-3
0.327, 2.287e-6, -1.080e-3
0.326, 2.227e-6, -1.079e-3
0.325, 2.167e-6, -1.078e-3
0.324, 2.104e-6, -1.077e-3
0.323, 2.039e-6, -1.076e-3
0.322, 1.974e-6, -1.075e-3
0.321, 1.903e-6, -1.074e-3
0.320, 1.833e-6, -1.073e-3
0.319, 1.759e-6, -1.072e-3
0.318, 1.683e-6, -1.071e-3
0.317, 1.604e-6, -1.070e-3
0.316, 1.522e-6, -1.069e-3
0.315, 1.443e-6, -1.069e-3
0.314, 1.362e-6, -1.068e-3
0.313, 1.275e-6, -1.067e-3
0.312, 1.184e-6, -1.067e-3
0.311, 1.094e-6, -1.066e-3
0.310, 1.002e-6, -1.066e-3
0.309, 9.089e-7, -1.065e-3
0.308, 8.043e-7, -1.065e-3
0.307, 6.997e-7, -1.065e-3
0.306, 6.019e-7, -1.064e-3
0.305, 4.983e-7, -1.064e-3
0.304, 3.910e-7, -1.064e-3
0.303, 2.825e-7, -1.064e-3
0.302, 1.709e-7, -1.064e-3
0.301, 5.403e-8, -1.064e-3
0.300, -6.776e-8, -1.064e-3
0.299, -1.875e-7, -1.064e-3
0.298, -3.061e-7, -1.064e-3
0.297, -4.295e-7, -1.064e-3
0.296, -5.475e-7, -1.064e-3
0.295, -6.822e-7, -1.065e-3
0.294, -8.143e-7, -1.065e-3
0.293, -9.444e-7, -1.066e-3
0.292, -1.075e-6, -1.066e-3
0.291, -1.209e-6, -1.067e-3
0.290, -1.348e-6, -1.067e-3
0.289, -1.488e-6, -1.068e-3
0.288, -1.631e-6, -1.069e-3
0.287, -1.773e-6, -1.070e-3
0.286, -1.915e-6, -1.071e-3
0.285, -2.056e-6, -1.072e-3
0.284, -2.202e-6, -1.073e-3
0.283, -2.358e-6, -1.074e-3
0.282, -2.506e-6, -1.075e-3
0.281, -2.657e-6, -1.077e-3
0.280, -2.798e-6, -1.078e-3
0.279, -2.950e-6, -1.079e-3
0.278, -3.099e-6, -1.081e-3
0.277, -3.256e-6, -1.083e-3
0.276, -3.409e-6, -1.084e-3
0.275, -3.563e-6, -1.086e-3
0.274, -3.719e-6, -1.088e-3
0.273, -3.877e-6, -1.090e-3
0.272, -4.030e-6, -1.092e-3
0.271, -4.181e-6, -1.094e-3
0.270, -4.334e-6, -1.096e-3
0.269, -4.486e-6, -1.098e-3
0.268, -4.642e-6, -1.101e-3
0.267, -4.792e-6, -1.103e-3
0.266, -4.938e-6, -1.106e-3
0.265, -5.090e-6, -1.108e-3
0.264, -5.239e-6, -1.111e-3
0.263, -5.388e-6, -1.114e-3
0.262, -5.535e-6, -1.116e-3
0.261, -5.675e-6, -1.119e-3
0.260, -5.815e-6, -1.122e-3
0.259, -5.956e-6, -1.125e-3
0.258, -6.088e-6, -1.128e-3
0.257, -6.225e-6, -1.131e-3
0.256, -6.362e-6, -1.134e-3
0.255, -6.494e-6, -1.138e-3
0.254, -6.611e-6, -1.141e-3
0.253, -6.728e-6, -1.144e-3
0.252, -6.854e-6, -1.148e-3
0.251, -6.977e-6, -1.151e-3
0.250, -7.096e-6, -1.155e-3
0.249, -7.203e-6, -1.158e-3
0.248, -7.305e-6, -1.162e-3
0.247, -7.415e-6, -1.166e-3
0.246, -7.509e-6, -1.169e-3
0.245, -7.607e-6, -1.173e-3
0.244, -7.704e-6, -1.177e-3
0.243, -7.798e-6, -1.181e-3
0.242, -7.887e-6, -1.185e-3
0.241, -7.962e-6, -1.189e-3
0.240, -8.038e-6, -1.193e-3
0.239, -8.121e-6, -1.197e-3
0.238, -8.189e-6, -1.201e-3
0.237, -8.253e-6, -1.205e-3
0.236, -8.324e-6, -1.209e-3
0.235, -8.379e-6, -1.214e-3
0.234, -8.432e-6, -1.218e-3
0.233, -8.489e-6, -1.222e-3
0.232, -8.537e-6, -1.226e-3
0.231, -8.580e-6, -1.231e-3
0.230, -8.627e-6, -1.235e-3
0.229, -8.664e-6, -1.239e-3
0.228, -8.691e-6, -1.244e-3
0.227, -8.727e-6, -1.248e-3
0.226, -8.755e-6, -1.252e-3
0.225, -8.779e-6, -1.257e-3
0.224, -8.797e-6, -1.261e-3
0.223, -8.814e-6, -1.266e-3
0.222, -8.833e-6, -1.270e-3
0.221, -8.839e-6, -1.274e-3
0.220, -8.853e-6, -1.279e-3
0.219, -8.856e-6, -1.283e-3
0.218, -8.859e-6, -1.288e-3
0.217, -8.859e-6, -1.292e-3
0.216, -8.856e-6, -1.296e-3
0.215, -8.852e-6, -1.301e-3
0.214, -8.845e-6, -1.305e-3
0.213, -8.836e-6, -1.310e-3
0.212, -8.827e-6, -1.314e-3
0.211, -8.813e-6, -1.319e-3
0.210, -8.799e-6, -1.323e-3
0.209, -8.779e-6, -1.327e-3
0.208, -8.760e-6, -1.332e-3
0.207, -8.741e-6, -1.336e-3
0.206, -8.719e-6, -1.340e-3
0.205, -8.689e-6, -1.345e-3
0.204, -8.661e-6, -1.349e-3
0.203, -8.639e-6, -1.353e-3
0.202, -8.616e-6, -1.358e-3
0.201, -8.589e-6, -1.362e-3
0.200, -8.555e-6, -1.366e-3
0.199, -8.527e-6, -1.371e-3
0.198, -8.495e-6, -1.375e-3
0.197, -8.457e-6, -1.379e-3
0.196, -8.426e-6, -1.383e-3
0.195, -8.394e-6, -1.387e-3
0.194, -8.359e-6, -1.392e-3
0.193, -8.327e-6, -1.396e-3
0.192, -8.291e-6, -1.400e-3
0.191, -8.255e-6, -1.404e-3
0.190, -8.218e-6, -1.408e-3
0.189, -8.184e-6, -1.412e-3
0.188, -8.147e-6, -1.416e-3
0.187, -8.110e-6, -1.420e-3
0.186, -8.073e-6, -1.424e-3
0.185, -8.036e-6, -1.428e-3
0.184, -7.998e-6, -1.432e-3
0.183, -7.961e-6, -1.436e-3
0.182, -7.924e-6, -1.440e-3
0.181, -7.888e-6, -1.444e-3
0.180, -7.852e-6, -1.448e-3
0.179, -7.815e-6, -1.452e-3
0.178, -7.776e-6, -1.456e-3
0.177, -7.740e-6, -1.460e-3
0.176, -7.704e-6, -1.464e-3
0.175, -7.667e-6, -1.468e-3
0.174, -7.631e-6, -1.471e-3
0.173, -7.596e-6, -1.475e-3
0.172, -7.560e-6, -1.479e-3
0.171, -7.525e-6, -1.483e-3
0.170, -7.490e-6, -1.487e-3
0.169, -7.456e-6, -1.490e-3
0.168, -7.423e-6, -1.494e-3
0.167, -7.389e-6, -1.498e-3
0.166, -7.356e-6, -1.501e-3
0.165, -7.323e-6, -1.505e-3
0.164, -7.290e-6, -1.509e-3
0.163, -7.259e-6, -1.512e-3
0.162, -7.229e-6, -1.516e-3
0.161, -7.196e-6, -1.520e-3
0.160, -7.167e-6, -1.523e-3
0.159, -7.137e-6, -1.527e-3
0.158, -7.108e-6, -1.530e-3
0.157, -7.078e-6, -1.534e-3
0.156, -7.051e-6, -1.537e-3
0.155, -7.023e-6, -1.541e-3
0.154, -6.995e-6, -1.544e-3
0.153, -6.969e-6, -1.548e-3
0.152, -6.942e-6, -1.551e-3
0.151, -6.914e-6, -1.555e-3
0.150, -6.884e-6, -1.558e-3
0.149, -6.859e-6, -1.562e-3
0.148, -6.836e-6, -1.565e-3
0.147, -6.812e-6, -1.568e-3
0.146, -6.788e-6, -1.572e-3
0.145, -6.766e-6, -1.575e-3
0.144, -6.745e-6, -1.579e-3
0.143, -6.724e-6, -1.582e-3
0.142, -6.702e-6, -1.585e-3
0.141, -6.683e-6, -1.589e-3
0.140, -6.662e-6, -1.592e-3
0.139, -6.643e-6, -1.595e-3
0.138, -6.626e-6, -1.599e-3
0.137, -6.607e-6, -1.602e-3
0.136, -6.589e-6, -1.605e-3
0.135, -6.573e-6, -1.608e-3
0.134, -6.558e-6, -1.612e-3
0.133, -6.542e-6, -1.615e-3
0.132, -6.528e-6, -1.618e-3
0.131, -6.513e-6, -1.622e-3
0.130, -6.499e-6, -1.625e-3
0.129, -6.487e-6, -1.628e-3
0.128, -6.475e-6, -1.631e-3
0.127, -6.464e-6, -1.634e-3
0.126, -6.453e-6, -1.638e-3
0.125, -6.443e-6, -1.641e-3
0.124, -6.435e-6, -1.644e-3
0.123, -6.615e-6, -1.647e-3
0.122, -8.900e-6, -1.652e-3
0.121, -7.691e-6, -1.656e-3
0.120, -7.488e-6, -1.660e-3
0.119, -7.427e-6, -1.663e-3
0.118, -7.406e-6, -1.667e-3
0.117, -7.394e-6, -1.671e-3
0.116, -7.385e-6, -1.674e-3
0.115, -7.374e-6, -1.678e-3
0.114, -7.362e-6, -1.682e-3
0.113, -7.344e-6, -1.685e-3
0.112, -7.324e-6, -1.689e-3
0.111, -7.300e-6, -1.693e-3
0.110, -7.274e-6, -1.696e-3
0.109, -7.247e-6, -1.700e-3
0.108, -7.219e-6, -1.704e-3
0.107, -7.188e-6, -1.707e-3
0.106, -7.159e-6, -1.711e-3
0.105, -7.129e-6, -1.714e-3
0.104, -7.098e-6, -1.718e-3
0.103, -7.069e-6, -1.721e-3
0.102, -7.039e-6, -1.725e-3
0.101, -7.009e-6, -1.728e-3
0.100, -6.980e-6, -1.732e-3
0.099, -6.952e-6, -1.735e-3
0.098, -6.924e-6, -1.739e-3
0.097, -6.891e-6, -1.742e-3
0.096, -6.865e-6, -1.746e-3
0.095, -6.839e-6, -1.749e-3
0.094, -6.814e-6, -1.753e-3
0.093, -6.790e-6, -1.756e-3
0.092, -6.767e-6, -1.759e-3
0.091, -6.745e-6, -1.763e-3
0.090, -6.724e-6, -1.766e-3
0.089, -6.703e-6, -1.769e-3
0.088, -6.683e-6, -1.773e-3
0.087, -6.664e-6, -1.776e-3
0.086, -6.645e-6, -1.779e-3
0.085, -6.630e-6, -1.783e-3
0.084, -6.611e-6, -1.786e-3
0.083, -6.594e-6, -1.789e-3
0.082, -6.580e-6, -1.793e-3
0.081, -6.565e-6, -1.796e-3
0.080, -6.553e-6, -1.799e-3
0.079, -6.540e-6, -1.802e-3
0.078, -6.529e-6, -1.806e-3
0.077, -6.517e-6, -1.809e-3
0.076, -6.507e-6, -1.812e-3
0.075, -6.496e-6, -1.815e-3
0.074, -6.488e-6, -1.819e-3
0.073, -6.481e-6, -1.822e-3
0.072, -6.472e-6, -1.825e-3
0.071, -6.466e-6, -1.828e-3
0.070, -6.462e-6, -1.832e-3
0.069, -6.457e-6, -1.835e-3
0.068, -6.452e-6, -1.838e-3
0.067, -6.448e-6, -1.841e-3
0.066, -6.446e-6, -1.845e-3
0.065, -6.444e-6, -1.848e-3
0.064, -6.443e-6, -1.851e-3
0.063, -6.442e-6, -1.854e-3
0.062, -6.442e-6, -1.857e-3
0.061, -6.443e-6, -1.861e-3
0.060, -6.444e-6, -1.864e-3
0.059, -6.445e-6, -1.867e-3
0.058, -6.449e-6, -1.870e-3
0.057, -6.452e-6, -1.874e-3
0.056, -6.457e-6, -1.877e-3
0.055, -6.462e-6, -1.880e-3
0.054, -6.466e-6, -1.883e-3
0.053, -6.472e-6, -1.886e-3
0.052, -6.479e-6, -1.890e-3
0.051, -6.486e-6, -1.893e-3
0.050, -6.492e-6, -1.896e-3
0.049, -6.500e-6, -1.899e-3
0.048, -6.509e-6, -1.903e-3
0.047, -6.516e-6, -1.906e-3
0.046, -6.525e-6, -1.909e-3
0.045, -6.536e-6, -1.912e-3
0.044, -6.543e-6, -1.916e-3
0.043, -6.553e-6, -1.919e-3
0.042, -6.562e-6, -1.922e-3
0.041, -6.570e-6, -1.926e-3
0.040, -6.582e-6, -1.929e-3
0.039, -6.589e-6, -1.932e-3
0.038, -6.600e-6, -1.935e-3
0.037, -6.609e-6, -1.939e-3
0.036, -6.618e-6, -1.942e-3
0.035, -6.629e-6, -1.945e-3
0.034, -6.637e-6, -1.949e-3
0.033, -6.643e-6, -1.952e-3
0.032, -6.652e-6, -1.955e-3
0.031, -6.660e-6, -1.959e-3
0.030, -6.666e-6, -1.962e-3
0.029, -6.674e-6, -1.965e-3
0.028, -6.681e-6, -1.969e-3
0.027, -6.686e-6, -1.972e-3
0.026, -6.690e-6, -1.975e-3
0.025, -6.695e-6, -1.979e-3
0.024, -6.701e-6, -1.982e-3
0.023, -6.705e-6, -1.985e-3
0.022, -6.708e-6, -1.989e-3
0.021, -6.711e-6, -1.992e-3
0.020, -6.714e-6, -1.996e-3
0.019, -6.717e-6, -1.999e-3
0.018, -6.719e-6, -2.002e-3
0.017, -6.720e-6, -2.006e-3
0.016, -6.721e-6, -2.009e-3
0.015, -6.722e-6, -2.012e-3
0.014, -6.721e-6, -2.016e-3
0.013, -6.722e-6, -2.019e-3
0.012, -6.720e-6, -2.022e-3
0.011, -6.719e-6, -2.026e-3
0.010, -6.717e-6, -2.029e-3
0.009, -6.716e-6, -2.032e-3
0.008, -6.714e-6, -2.036e-3
0.007, -6.712e-6, -2.039e-3
0.006, -6.710e-6, -2.043e-3
0.005, -6.707e-6, -2.046e-3
0.004, -6.704e-6, -2.049e-3
0.003, -6.700e-6, -2.053e-3
