Próbka
Potential/V, Current/A
0.500, 4.786e-6
0.499, 4.670e-6
0.498, 4.583e-6
0.497, 4.524e-6
0.496, 4.505e-6
0.495, 4.503e-6
0.494, 4.501e-6
0.493, 4.486e-6
0.492, 4.467e-6
0.491, 4.447e-6
0.490, 4.427e-6
0.489, 4.412e-6
0.488, 4.399e-6
0.487, 4.386e-6
0.486, 4.373e-6
0.485, 4.363e-6
0.484, 4.355e-6
0.483, 4.347e-6
0.482, 4.337e-6
0.481, 4.326e-6
0.480, 4.320e-6
0.479, 4.314e-6
0.478, 4.306e-6
0.477, 4.298e-6
0.476, 4.286e-6
0.475, 4.277e-6
0.474, 4.274e-6
0.473, 4.267e-6
0.472, 4.257e-6
0.471, 4.244e-6
0.470, 4.233e-6
0.469, 4.225e-6
0.468, 4.220e-6
0.467, 4.216e-6
0.466, 4.211e-6
0.465, 4.204e-6
0.464, 4.193e-6
0.463, 4.180e-6
0.462, 4.164e-6
0.461, 4.151e-6
0.460, 4.140e-6
0.459, 4.133e-6
0.458, 4.128e-6
0.457, 4.124e-6
0.456, 4.118e-6
0.455, 4.111e-6
0.454, 4.104e-6
0.453, 4.098e-6
0.452, 4.093e-6
0.451, 4.087e-6
0.450, 4.080e-6
0.449, 4.074e-6
0.448, 4.068e-6
0.447, 4.063e-6
0.446, 4.056e-6
0.445, 4.050e-6
0.444, 4.043e-6
0.443, 4.037e-6
0.442, 4.033e-6
0.441, 4.028e-6
0.440, 4.020e-6
0.439, 4.010e-6
0.438, 3.996e-6
0.437, 3.981e-6
0.436, 3.967e-6
0.435, 3.957e-6
0.434, 3.950e-6
0.433, 3.945e-6
0.432, 3.941e-6
0.431, 3.934e-6
0.430, 3.928e-6
0.429, 3.922e-6
0.428, 3.916e-6
0.427, 3.907e-6
0.426, 3.893e-6
0.425, 3.877e-6
0.424, 3.862e-6
0.423, 3.853e-6
0.422, 3.847e-6
0.421, 3.842e-6
0.420, 3.836e-6
0.419, 3.829e-6
0.418, 3.823e-6
0.417, 3.819e-6
0.416, 3.813e-6
0.415, 3.807e-6
0.414, 3.797e-6
0.413, 3.781e-6
0.412, 3.764e-6
0.411, 3.748e-6
0.410, 3.734e-6
0.409, 3.726e-6
0.408, 3.717e-6
0.407, 3.705e-6
0.406, 3.694e-6
0.405, 3.684e-6
0.404, 3.675e-6
0.403, 3.667e-6
0.402, 3.656e-6
0.401, 3.640e-6
0.400, 3.626e-6
0.399, 3.611e-6
0.398, 3.597e-6
0.397, 3.584e-6
0.396, 3.572e-6
0.395, 3.560e-6
0.394, 3.550e-6
0.393, 3.539e-6
0.392, 3.524e-6
0.391, 3.507e-6
0.390, 3.490e-6
0.389, 3.474e-6
0.388, 3.456e-6
0.387, 3.438e-6
0.386, 3.414e-6
0.385, 3.391e-6
0.384, 3.371e-6
0.383, 3.353e-6
0.382, 3.336e-6
0.381, 3.316e-6
0.380, 3.294e-6
0.379, 3.272e-6
0.378, 3.249e-6
0.377, 3.228e-6
0.376, 3.201e-6
0.375, 3.174e-6
0.374, 3.147e-6
0.373, 3.120e-6
0.372, 3.094e-6
0.371, 3.070e-6
0.370, 3.043e-6
0.369, 3.014e-6
0.368, 2.985e-6
0.367, 2.953e-6
0.366, 2.916e-6
0.365, 2.883e-6
0.364, 2.850e-6
0.363, 2.814e-6
0.362, 2.776e-6
0.361, 2.733e-6
0.360, 2.688e-6
0.359, 2.647e-6
0.358, 2.610e-6
0.357, 2.572e-6
0.356, 2.533e-6
0.355, 2.491e-6
0.354, 2.445e-6
0.353, 2.394e-6
0.352, 2.341e-6
0.351, 2.284e-6
0.350, 2.231e-6
0.349, 2.182e-6
0.348, 2.130e-6
0.347, 2.069e-6
0.346, 2.000e-6
0.345, 1.927e-6
0.344, 1.856e-6
0.343, 1.792e-6
0.342, 1.726e-6
0.341, 1.654e-6
0.340, 1.578e-6
0.339, 1.498e-6
0.338, 1.417e-6
0.337, 1.334e-6
0.336, 1.244e-6
0.335, 1.149e-6
0.334, 1.050e-6
0.333, 9.473e-7
0.332, 8.429e-7
0.331, 7.368e-7
0.330, 6.317e-7
0.329, 5.279e-7
0.328, 4.193e-7
0.327, 3.023e-7
0.326, 1.759e-7
0.325, 4.285e-8
0.324, -9.314e-8
0.323, -2.293e-7
0.322, -3.739e-7
0.321, -5.274e-7
0.320, -6.843e-7
0.319, -8.406e-7
0.318, -9.975e-7
0.317, -1.155e-6
0.316, -1.325e-6
0.315, -1.505e-6
0.314, -1.691e-6
0.313, -1.881e-6
0.312, -2.081e-6
0.311, -2.290e-6
0.310, -2.507e-6
0.309, -2.731e-6
0.308, -2.958e-6
0.307, -3.191e-6
0.306, -3.434e-6
0.305, -3.687e-6
0.304, -3.948e-6
0.303, -4.216e-6
0.302, -4.496e-6
0.301, -4.789e-6
0.300, -5.088e-6
0.299, -5.394e-6
0.298, -5.707e-6
0.297, -6.031e-6
0.296, -6.378e-6
0.295, -6.739e-6
0.294, -7.107e-6
0.293, -7.484e-6
0.292, -7.870e-6
0.291, -8.271e-6
0.290, -8.686e-6
0.289, -9.109e-6
0.288, -9.543e-6
0.287, -1.000e-5
0.286, -1.048e-5
0.285, -1.098e-5
0.284, -1.149e-5
0.283, -1.201e-5
0.282, -1.256e-5
0.281, -1.312e-5
0.280, -1.370e-5
0.279, -1.429e-5
0.278, -1.489e-5
0.277, -1.551e-5
0.276, -1.615e-5
0.275, -1.682e-5
0.274, -1.750e-5
0.273, -1.820e-5
0.272, -1.893e-5
0.271, -1.969e-5
0.270, -2.047e-5
0.269, -2.127e-5
0.268, -2.208e-5
0.267, -2.292e-5
0.266, -2.379e-5
0.265, -2.468e-5
0.264, -2.559e-5
0.263, -2.652e-5
0.262, -2.747e-5
0.261, -2.846e-5
0.260, -2.949e-5
0.259, -3.053e-5
0.258, -3.161e-5
0.257, -3.273e-5
0.256, -3.389e-5
0.255, -3.508e-5
0.254, -3.627e-5
0.253, -3.748e-5
0.252, -3.870e-5
0.251, -3.997e-5
0.250, -4.126e-5
0.249, -4.258e-5
0.248, -4.393e-5
0.247, -4.532e-5
0.246, -4.676e-5
0.245, -4.823e-5
0.244, -4.973e-5
0.243, -5.124e-5
0.242, -5.279e-5
0.241, -5.438e-5
0.240, -5.599e-5
0.239, -5.761e-5
0.238, -5.925e-5
0.237, -6.092e-5
0.236, -6.264e-5
0.235, -6.441e-5
0.234, -6.620e-5
0.233, -6.801e-5
0.232, -6.986e-5
0.231, -7.177e-5
0.230, -7.372e-5
0.229, -7.566e-5
0.228, -7.759e-5
0.227, -7.951e-5
0.226, -8.147e-5
0.225, -8.346e-5
0.224, -8.547e-5
0.223, -8.750e-5
0.222, -8.956e-5
0.221, -9.166e-5
0.220, -9.378e-5
0.219, -9.591e-5
0.218, -9.804e-5
0.217, -1.002e-4
0.216, -1.024e-4
0.215, -1.046e-4
0.214, -1.068e-4
0.213, -1.089e-4
0.212, -1.111e-4
0.211, -1.132e-4
0.210, -1.154e-4
0.209, -1.176e-4
0.208, -1.198e-4
0.207, -1.219e-4
0.206, -1.241e-4
0.205, -1.262e-4
0.204, -1.283e-4
0.203, -1.305e-4
0.202, -1.326e-4
0.201, -1.348e-4
0.200, -1.370e-4
0.199, -1.391e-4
0.198, -1.411e-4
0.197, -1.431e-4
0.196, -1.452e-4
0.195, -1.472e-4
0.194, -1.493e-4
0.193, -1.512e-4
0.192, -1.532e-4
0.191, -1.551e-4
0.190, -1.570e-4
0.189, -1.588e-4
0.188, -1.606e-4
0.187, -1.623e-4
0.186, -1.640e-4
0.185, -1.657e-4
0.184, -1.673e-4
0.183, -1.689e-4
0.182, -1.704e-4
0.181, -1.720e-4
0.180, -1.735e-4
0.179, -1.749e-4
0.178, -1.763e-4
0.177, -1.776e-4
0.176, -1.788e-4
0.175, -1.800e-4
0.174, -1.812e-4
0.173, -1.822e-4
0.172, -1.832e-4
0.171, -1.842e-4
0.170, -1.851e-4
0.169, -1.860e-4
0.168, -1.868e-4
0.167, -1.875e-4
0.166, -1.883e-4
0.165, -1.889e-4
0.164, -1.895e-4
0.163, -1.901e-4
0.162, -1.905e-4
0.161, -1.910e-4
0.160, -1.913e-4
0.159, -1.917e-4
0.158, -1.919e-4
0.157, -1.921e-4
0.156, -1.923e-4
0.155, -1.925e-4
0.154, -1.926e-4
0.153, -1.927e-4
0.152, -1.927e-4
0.151, -1.926e-4
0.150, -1.925e-4
0.149, -1.924e-4
0.148, -1.922e-4
0.147, -1.919e-4
0.146, -1.916e-4
0.145, -1.914e-4
0.144, -1.910e-4
0.143, -1.907e-4
0.142, -1.903e-4
0.141, -1.899e-4
0.140, -1.894e-4
0.139, -1.890e-4
0.138, -1.884e-4
0.137, -1.879e-4
0.136, -1.873e-4
0.135, -1.867e-4
0.134, -1.861e-4
0.133, -1.854e-4
0.132, -1.848e-4
0.131, -1.841e-4
0.130, -1.835e-4
0.129, -1.828e-4
0.128, -1.821e-4
0.127, -1.814e-4
0.126, -1.807e-4
0.125, -1.799e-4
0.124, -1.792e-4
0.123, -1.784e-4
0.122, -1.776e-4
0.121, -1.768e-4
0.120, -1.760e-4
0.119, -1.752e-4
0.118, -1.744e-4
0.117, -1.736e-4
0.116, -1.728e-4
0.115, -1.720e-4
0.114, -1.711e-4
0.113, -1.703e-4
0.112, -1.695e-4
0.111, -1.687e-4
0.110, -1.679e-4
0.109, -1.670e-4
0.108, -1.662e-4
0.107, -1.654e-4
0.106, -1.646e-4
0.105, -1.638e-4
0.104, -1.630e-4
0.103, -1.622e-4
0.102, -1.613e-4
0.101, -1.606e-4
0.100, -1.598e-4
0.099, -1.590e-4
0.098, -1.581e-4
0.097, -1.574e-4
0.096, -1.566e-4
0.095, -1.558e-4
0.094, -1.550e-4
0.093, -1.543e-4
0.092, -1.535e-4
0.091, -1.528e-4
0.090, -1.520e-4
0.089, -1.513e-4
0.088, -1.505e-4
0.087, -1.498e-4
0.086, -1.491e-4
0.085, -1.484e-4
0.084, -1.477e-4
0.083, -1.469e-4
0.082, -1.462e-4
0.081, -1.455e-4
0.080, -1.449e-4
0.079, -1.442e-4
0.078, -1.435e-4
0.077, -1.428e-4
0.076, -1.422e-4
0.075, -1.415e-4
0.074, -1.409e-4
0.073, -1.402e-4
0.072, -1.396e-4
0.071, -1.390e-4
0.070, -1.383e-4
0.069, -1.377e-4
0.068, -1.371e-4
0.067, -1.365e-4
0.066, -1.359e-4
0.065, -1.353e-4
0.064, -1.347e-4
0.063, -1.341e-4
0.062, -1.335e-4
0.061, -1.330e-4
0.060, -1.324e-4
0.059, -1.319e-4
0.058, -1.313e-4
0.057, -1.308e-4
0.056, -1.302e-4
0.055, -1.297e-4
0.054, -1.291e-4
0.053, -1.286e-4
0.052, -1.281e-4
0.051, -1.276e-4
0.050, -1.271e-4
0.049, -1.266e-4
0.048, -1.261e-4
0.047, -1.256e-4
0.046, -1.251e-4
0.045, -1.246e-4
0.044, -1.241e-4
0.043, -1.236e-4
0.042, -1.232e-4
0.041, -1.227e-4
0.040, -1.223e-4
0.039, -1.218e-4
0.038, -1.213e-4
0.037, -1.209e-4
0.036, -1.205e-4
0.035, -1.200e-4
0.034, -1.196e-4
0.033, -1.192e-4
0.032, -1.187e-4
0.031, -1.183e-4
0.030, -1.179e-4
0.029, -1.175e-4
0.028, -1.171e-4
0.027, -1.167e-4
0.026, -1.163e-4
0.025, -1.159e-4
0.024, -1.155e-4
0.023, -1.151e-4
0.022, -1.147e-4
0.021, -1.143e-4
0.020, -1.140e-4
0.019, -1.136e-4
0.018, -1.132e-4
0.017, -1.128e-4
0.016, -1.125e-4
0.015, -1.121e-4
0.014, -1.117e-4
0.013, -1.114e-4
0.012, -1.110e-4
0.011, -1.107e-4
0.010, -1.104e-4
0.009, -1.100e-4
0.008, -1.097e-4
0.007, -1.093e-4
0.006, -1.090e-4
0.005, -1.087e-4
0.004, -1.084e-4
0.003, -1.080e-4
0.002, -1.077e-4
0.001, -1.074e-4
0.000, -1.071e-4
-0.001, -1.068e-4
-0.002, -1.065e-4
-0.003, -1.062e-4
-0.004, -1.058e-4
-0.005, -1.055e-4
-0.006, -1.052e-4
-0.007, -1.050e-4
-0.008, -1.047e-4
-0.009, -1.044e-4
-0.010, -1.041e-4
-0.011, -1.038e-4
-0.012, -1.035e-4
-0.013, -1.032e-4
-0.014, -1.029e-4
-0.015, -1.027e-4
-0.016, -1.024e-4
-0.017, -1.021e-4
-0.018, -1.018e-4
-0.019, -1.016e-4
-0.020, -1.013e-4
-0.021, -1.010e-4
-0.022, -1.008e-4
-0.023, -1.005e-4
-0.024, -1.002e-4
-0.025, -9.999e-5
-0.026, -9.974e-5
-0.027, -9.949e-5
-0.028, -9.925e-5
-0.029, -9.900e-5
-0.030, -9.875e-5
-0.031, -9.851e-5
-0.032, -9.826e-5
-0.033, -9.801e-5
-0.034, -9.777e-5
-0.035, -9.754e-5
-0.036, -9.730e-5
-0.037, -9.707e-5
-0.038, -9.684e-5
-0.039, -9.661e-5
-0.040, -9.638e-5
-0.041, -9.615e-5
-0.042, -9.593e-5
-0.043, -9.570e-5
-0.044, -9.547e-5
-0.045, -9.525e-5
-0.046, -9.503e-5
-0.047, -9.481e-5
-0.048, -9.460e-5
-0.049, -9.438e-5
-0.050, -9.417e-5
-0.051, -9.396e-5
-0.052, -9.375e-5
-0.053, -9.354e-5
-0.054, -9.334e-5
-0.055, -9.314e-5
-0.056, -9.293e-5
-0.057, -9.272e-5
-0.058, -9.251e-5
-0.059, -9.230e-5
-0.060, -9.210e-5
-0.061, -9.191e-5
-0.062, -9.171e-5
-0.063, -9.152e-5
-0.064, -9.133e-5
-0.065, -9.114e-5
-0.066, -9.095e-5
-0.067, -9.075e-5
-0.068, -9.056e-5
-0.069, -9.037e-5
-0.070, -9.018e-5
-0.071, -8.999e-5
-0.072, -8.981e-5
-0.073, -8.964e-5
-0.074, -8.947e-5
-0.075, -8.929e-5
-0.076, -8.911e-5
-0.077, -8.893e-5
-0.078, -8.875e-5
-0.079, -8.856e-5
-0.080, -8.838e-5
-0.081, -8.821e-5
-0.082, -8.804e-5
-0.083, -8.787e-5
-0.084, -8.770e-5
-0.085, -8.753e-5
-0.086, -8.735e-5
-0.087, -8.719e-5
-0.088, -8.703e-5
-0.089, -8.686e-5
-0.090, -8.670e-5
-0.091, -8.653e-5
-0.092, -8.636e-5
-0.093, -8.620e-5
-0.094, -8.604e-5
-0.095, -8.589e-5
-0.096, -8.573e-5
-0.097, -8.558e-5
-0.098, -8.543e-5
-0.099, -8.528e-5
-0.100, -8.512e-5
-0.101, -8.496e-5
-0.102, -8.480e-5
-0.103, -8.464e-5
-0.104, -8.449e-5
-0.105, -8.433e-5
-0.106, -8.418e-5
-0.107, -8.403e-5
-0.108, -8.389e-5
-0.109, -8.375e-5
-0.110, -8.360e-5
-0.111, -8.346e-5
-0.112, -8.331e-5
-0.113, -8.317e-5
-0.114, -8.302e-5
-0.115, -8.288e-5
-0.116, -8.274e-5
-0.117, -8.260e-5
-0.118, -8.246e-5
-0.119, -8.232e-5
-0.120, -8.218e-5
-0.121, -8.203e-5
-0.122, -8.190e-5
-0.123, -8.176e-5
-0.124, -8.164e-5
-0.125, -8.151e-5
-0.126, -8.137e-5
-0.127, -8.123e-5
-0.128, -8.109e-5
-0.129, -8.096e-5
-0.130, -8.083e-5
-0.131, -8.069e-5
-0.132, -8.056e-5
-0.133, -8.042e-5
-0.134, -8.029e-5
-0.135, -8.016e-5
-0.136, -8.004e-5
-0.137, -7.991e-5
-0.138, -7.979e-5
-0.139, -7.966e-5
-0.140, -7.953e-5
-0.141, -7.941e-5
-0.142, -7.930e-5
-0.143, -7.918e-5
-0.144, -7.906e-5
-0.145, -7.893e-5
-0.146, -7.880e-5
-0.147, -7.868e-5
-0.148, -7.856e-5
-0.149, -7.844e-5
-0.150, -7.832e-5
-0.151, -7.820e-5
-0.152, -7.809e-5
-0.153, -7.797e-5
-0.154, -7.786e-5
-0.155, -7.775e-5
-0.156, -7.764e-5
-0.157, -7.752e-5
-0.158, -7.741e-5
-0.159, -7.729e-5
-0.160, -7.717e-5
-0.161, -7.705e-5
-0.162, -7.694e-5
-0.163, -7.684e-5
-0.164, -7.673e-5
-0.165, -7.662e-5
-0.166, -7.651e-5
-0.167, -7.640e-5
-0.168, -7.629e-5
-0.169, -7.618e-5
-0.170, -7.608e-5
-0.171, -7.597e-5
-0.172, -7.586e-5
-0.173, -7.576e-5
-0.174, -7.566e-5
-0.175, -7.555e-5
-0.176, -7.545e-5
-0.177, -7.534e-5
-0.178, -7.524e-5
-0.179, -7.514e-5
-0.180, -7.504e-5
-0.181, -7.493e-5
-0.182, -7.483e-5
-0.183, -7.473e-5
-0.184, -7.463e-5
-0.185, -7.453e-5
-0.186, -7.442e-5
-0.187, -7.433e-5
-0.188, -7.423e-5
-0.189, -7.414e-5
-0.190, -7.403e-5
-0.191, -7.393e-5
-0.192, -7.383e-5
-0.193, -7.374e-5
-0.194, -7.366e-5
-0.195, -7.357e-5
-0.196, -7.347e-5
-0.197, -7.337e-5
-0.198, -7.326e-5
-0.199, -7.315e-5
-0.200, -7.259e-5
-0.199, -7.220e-5
-0.198, -7.187e-5
-0.197, -7.161e-5
-0.196, -7.143e-5
-0.195, -7.129e-5
-0.194, -7.116e-5
-0.193, -7.101e-5
-0.192, -7.088e-5
-0.191, -7.075e-5
-0.190, -7.062e-5
-0.189, -7.050e-5
-0.188, -7.038e-5
-0.187, -7.025e-5
-0.186, -7.013e-5
-0.185, -7.002e-5
-0.184, -6.991e-5
-0.183, -6.980e-5
-0.182, -6.970e-5
-0.181, -6.958e-5
-0.180, -6.945e-5
-0.179, -6.934e-5
-0.178, -6.922e-5
-0.177, -6.912e-5
-0.176, -6.902e-5
-0.175, -6.891e-5
-0.174, -6.881e-5
-0.173, -6.870e-5
-0.172, -6.859e-5
-0.171, -6.849e-5
-0.170, -6.838e-5
-0.169, -6.828e-5
-0.168, -6.817e-5
-0.167, -6.808e-5
-0.166, -6.799e-5
-0.165, -6.789e-5
-0.164, -6.779e-5
-0.163, -6.768e-5
-0.162, -6.758e-5
-0.161, -6.748e-5
-0.160, -6.739e-5
-0.159, -6.730e-5
-0.158, -6.720e-5
-0.157, -6.711e-5
-0.156, -6.702e-5
-0.155, -6.694e-5
-0.154, -6.684e-5
-0.153, -6.675e-5
-0.152, -6.665e-5
-0.151, -6.656e-5
-0.150, -6.647e-5
-0.149, -6.638e-5
-0.148, -6.629e-5
-0.147, -6.620e-5
-0.146, -6.611e-5
-0.145, -6.602e-5
-0.144, -6.594e-5
-0.143, -6.586e-5
-0.142, -6.577e-5
-0.141, -6.567e-5
-0.140, -6.557e-5
-0.139, -6.548e-5
-0.138, -6.539e-5
-0.137, -6.530e-5
-0.136, -6.522e-5
-0.135, -6.514e-5
-0.134, -6.505e-5
-0.133, -6.496e-5
-0.132, -6.488e-5
-0.131, -6.479e-5
-0.130, -6.471e-5
-0.129, -6.462e-5
-0.128, -6.454e-5
-0.127, -6.446e-5
-0.126, -6.439e-5
-0.125, -6.431e-5
-0.124, -6.422e-5
-0.123, -6.414e-5
-0.122, -6.405e-5
-0.121, -6.397e-5
-0.120, -6.389e-5
-0.119, -6.381e-5
-0.118, -6.374e-5
-0.117, -6.366e-5
-0.116, -6.357e-5
-0.115, -6.350e-5
-0.114, -6.342e-5
-0.113, -6.334e-5
-0.112, -6.326e-5
-0.111, -6.318e-5
-0.110, -6.310e-5
-0.109, -6.302e-5
-0.108, -6.294e-5
-0.107, -6.287e-5
-0.106, -6.279e-5
-0.105, -6.271e-5
-0.104, -6.263e-5
-0.103, -6.255e-5
-0.102, -6.247e-5
-0.101, -6.240e-5
-0.100, -6.233e-5
-0.099, -6.226e-5
-0.098, -6.218e-5
-0.097, -6.211e-5
-0.096, -6.204e-5
-0.095, -6.196e-5
-0.094, -6.189e-5
-0.093, -6.181e-5
-0.092, -6.173e-5
-0.091, -6.165e-5
-0.090, -6.158e-5
-0.089, -6.151e-5
-0.088, -6.144e-5
-0.087, -6.137e-5
-0.086, -6.130e-5
-0.085, -6.122e-5
-0.084, -6.115e-5
-0.083, -6.107e-5
-0.082, -6.099e-5
-0.081, -6.092e-5
-0.080, -6.085e-5
-0.079, -6.077e-5
-0.078, -6.070e-5
-0.077, -6.063e-5
-0.076, -6.056e-5
-0.075, -6.049e-5
-0.074, -6.042e-5
-0.073, -6.035e-5
-0.072, -6.027e-5
-0.071, -6.020e-5
-0.070, -6.013e-5
-0.069, -6.006e-5
-0.068, -5.999e-5
-0.067, -5.992e-5
-0.066, -5.984e-5
-0.065, -5.978e-5
-0.064, -5.971e-5
-0.063, -5.964e-5
-0.062, -5.957e-5
-0.061, -5.950e-5
-0.060, -5.943e-5
-0.059, -5.935e-5
-0.058, -5.928e-5
-0.057, -5.921e-5
-0.056, -5.914e-5
-0.055, -5.907e-5
-0.054, -5.901e-5
-0.053, -5.894e-5
-0.052, -5.888e-5
-0.051, -5.881e-5
-0.050, -5.874e-5
-0.049, -5.867e-5
-0.048, -5.860e-5
-0.047, -5.853e-5
-0.046, -5.846e-5
-0.045, -5.839e-5
-0.044, -5.831e-5
-0.043, -5.824e-5
-0.042, -5.817e-5
-0.041, -5.811e-5
-0.040, -5.805e-5
-0.039, -5.798e-5
-0.038, -5.791e-5
-0.037, -5.785e-5
-0.036, -5.778e-5
-0.035, -5.771e-5
-0.034, -5.763e-5
-0.033, -5.757e-5
-0.032, -5.750e-5
-0.031, -5.743e-5
-0.030, -5.737e-5
-0.029, -5.729e-5
-0.028, -5.722e-5
-0.027, -5.715e-5
-0.026, -5.708e-5
-0.025, -5.701e-5
-0.024, -5.694e-5
-0.023, -5.687e-5
-0.022, -5.680e-5
-0.021, -5.673e-5
-0.020, -5.667e-5
-0.019, -5.660e-5
-0.018, -5.653e-5
-0.017, -5.647e-5
-0.016, -5.639e-5
-0.015, -5.632e-5
-0.014, -5.624e-5
-0.013, -5.617e-5
-0.012, -5.611e-5
-0.011, -5.604e-5
-0.010, -5.597e-5
-0.009, -5.590e-5
-0.008, -5.582e-5
-0.007, -5.575e-5
-0.006, -5.568e-5
-0.005, -5.561e-5
-0.004, -5.553e-5
-0.003, -5.546e-5
-0.002, -5.538e-5
-0.001, -5.531e-5
-0.000, -5.524e-5
0.001, -5.516e-5
0.002, -5.509e-5
0.003, -5.502e-5
0.004, -5.494e-5
0.005, -5.487e-5
0.006, -5.480e-5
0.007, -5.472e-5
0.008, -5.465e-5
0.009, -5.457e-5
0.010, -5.450e-5
0.011, -5.441e-5
0.012, -5.433e-5
0.013, -5.424e-5
0.014, -5.417e-5
0.015, -5.410e-5
0.016, -5.402e-5
0.017, -5.394e-5
0.018, -5.386e-5
0.019, -5.378e-5
0.020, -5.370e-5
0.021, -5.362e-5
0.022, -5.353e-5
0.023, -5.345e-5
0.024, -5.336e-5
0.025, -5.328e-5
0.026, -5.319e-5
0.027, -5.310e-5
0.028, -5.302e-5
0.029, -5.292e-5
0.030, -5.283e-5
0.031, -5.273e-5
0.032, -5.263e-5
0.033, -5.254e-5
0.034, -5.244e-5
0.035, -5.235e-5
0.036, -5.225e-5
0.037, -5.215e-5
0.038, -5.205e-5
0.039, -5.196e-5
0.040, -5.186e-5
0.041, -5.176e-5
0.042, -5.165e-5
0.043, -5.154e-5
0.044, -5.143e-5
0.045, -5.132e-5
0.046, -5.120e-5
0.047, -5.109e-5
0.048, -5.097e-5
0.049, -5.085e-5
0.050, -5.073e-5
0.051, -5.060e-5
0.052, -5.047e-5
0.053, -5.035e-5
0.054, -5.022e-5
0.055, -5.010e-5
0.056, -4.997e-5
0.057, -4.983e-5
0.058, -4.969e-5
0.059, -4.955e-5
0.060, -4.940e-5
0.061, -4.925e-5
0.062, -4.910e-5
0.063, -4.894e-5
0.064, -4.879e-5
0.065, -4.863e-5
0.066, -4.846e-5
0.067, -4.830e-5
0.068, -4.813e-5
0.069, -4.796e-5
0.070, -4.778e-5
0.071, -4.760e-5
0.072, -4.741e-5
0.073, -4.722e-5
0.074, -4.702e-5
0.075, -4.681e-5
0.076, -4.660e-5
0.077, -4.638e-5
0.078, -4.617e-5
0.079, -4.596e-5
0.080, -4.575e-5
0.081, -4.551e-5
0.082, -4.527e-5
0.083, -4.503e-5
0.084, -4.478e-5
0.085, -4.452e-5
0.086, -4.426e-5
0.087, -4.398e-5
0.088, -4.370e-5
0.089, -4.341e-5
0.090, -4.311e-5
0.091, -4.281e-5
0.092, -4.249e-5
0.093, -4.218e-5
0.094, -4.185e-5
0.095, -4.152e-5
0.096, -4.118e-5
0.097, -4.082e-5
0.098, -4.046e-5
0.099, -4.009e-5
0.100, -3.970e-5
0.101, -3.930e-5
0.102, -3.889e-5
0.103, -3.847e-5
0.104, -3.804e-5
0.105, -3.759e-5
0.106, -3.713e-5
0.107, -3.665e-5
0.108, -3.617e-5
0.109, -3.569e-5
0.110, -3.518e-5
0.111, -3.465e-5
0.112, -3.410e-5
0.113, -3.354e-5
0.114, -3.298e-5
0.115, -3.239e-5
0.116, -3.178e-5
0.117, -3.115e-5
0.118, -3.051e-5
0.119, -2.987e-5
0.120, -2.920e-5
0.121, -2.850e-5
0.122, -2.779e-5
0.123, -2.706e-5
0.124, -2.632e-5
0.125, -2.555e-5
0.126, -2.474e-5
0.127, -2.390e-5
0.128, -2.304e-5
0.129, -2.218e-5
0.130, -2.130e-5
0.131, -2.039e-5
0.132, -1.946e-5
0.133, -1.851e-5
0.134, -1.755e-5
0.135, -1.658e-5
0.136, -1.556e-5
0.137, -1.451e-5
0.138, -1.342e-5
0.139, -1.230e-5
0.140, -1.115e-5
0.141, -9.981e-6
0.142, -8.783e-6
0.143, -7.572e-6
0.144, -6.351e-6
0.145, -5.098e-6
0.146, -3.806e-6
0.147, -2.482e-6
0.148, -1.131e-6
0.149, 2.449e-7
0.150, 1.656e-6
0.151, 3.112e-6
0.152, 4.607e-6
0.153, 6.125e-6
0.154, 7.655e-6
0.155, 9.215e-6
0.156, 1.081e-5
0.157, 1.243e-5
0.158, 1.407e-5
0.159, 1.572e-5
0.160, 1.739e-5
0.161, 1.910e-5
0.162, 2.085e-5
0.163, 2.263e-5
0.164, 2.444e-5
0.165, 2.629e-5
0.166, 2.817e-5
0.167, 3.007e-5
0.168, 3.198e-5
0.169, 3.389e-5
0.170, 3.582e-5
0.171, 3.781e-5
0.172, 3.981e-5
0.173, 4.181e-5
0.174, 4.381e-5
0.175, 4.583e-5
0.176, 4.790e-5
0.177, 5.002e-5
0.178, 5.217e-5
0.179, 5.433e-5
0.180, 5.650e-5
0.181, 5.869e-5
0.182, 6.086e-5
0.183, 6.301e-5
0.184, 6.513e-5
0.185, 6.726e-5
0.186, 6.940e-5
0.187, 7.157e-5
0.188, 7.375e-5
0.189, 7.591e-5
0.190, 7.810e-5
0.191, 8.031e-5
0.192, 8.252e-5
0.193, 8.469e-5
0.194, 8.682e-5
0.195, 8.892e-5
0.196, 9.103e-5
0.197, 9.314e-5
0.198, 9.522e-5
0.199, 9.725e-5
0.200, 9.927e-5
0.201, 1.013e-4
0.202, 1.033e-4
0.203, 1.053e-4
0.204, 1.072e-4
0.205, 1.090e-4
0.206, 1.109e-4
0.207, 1.127e-4
0.208, 1.146e-4
0.209, 1.164e-4
0.210, 1.181e-4
0.211, 1.198e-4
0.212, 1.215e-4
0.213, 1.231e-4
0.214, 1.247e-4
0.215, 1.263e-4
0.216, 1.278e-4
0.217, 1.293e-4
0.218, 1.307e-4
0.219, 1.321e-4
0.220, 1.334e-4
0.221, 1.346e-4
0.222, 1.358e-4
0.223, 1.370e-4
0.224, 1.380e-4
0.225, 1.391e-4
0.226, 1.401e-4
0.227, 1.410e-4
0.228, 1.420e-4
0.229, 1.428e-4
0.230, 1.436e-4
0.231, 1.444e-4
0.232, 1.451e-4
0.233, 1.457e-4
0.234, 1.463e-4
0.235, 1.467e-4
0.236, 1.472e-4
0.237, 1.476e-4
0.238, 1.479e-4
0.239, 1.482e-4
0.240, 1.485e-4
0.241, 1.487e-4
0.242, 1.489e-4
0.243, 1.490e-4
0.244, 1.491e-4
0.245, 1.491e-4
0.246, 1.491e-4
0.247, 1.490e-4
0.248, 1.489e-4
0.249, 1.487e-4
0.250, 1.485e-4
0.251, 1.482e-4
0.252, 1.480e-4
0.253, 1.477e-4
0.254, 1.474e-4
0.255, 1.470e-4
0.256, 1.467e-4
0.257, 1.463e-4
0.258, 1.458e-4
0.259, 1.453e-4
0.260, 1.448e-4
0.261, 1.442e-4
0.262, 1.436e-4
0.263, 1.430e-4
0.264, 1.424e-4
0.265, 1.418e-4
0.266, 1.412e-4
0.267, 1.405e-4
0.268, 1.399e-4
0.269, 1.391e-4
0.270, 1.384e-4
0.271, 1.377e-4
0.272, 1.370e-4
0.273, 1.363e-4
0.274, 1.355e-4
0.275, 1.347e-4
0.276, 1.339e-4
0.277, 1.332e-4
0.278, 1.324e-4
0.279, 1.316e-4
0.280, 1.308e-4
0.281, 1.300e-4
0.282, 1.292e-4
0.283, 1.284e-4
0.284, 1.276e-4
0.285, 1.268e-4
0.286, 1.260e-4
0.287, 1.252e-4
0.288, 1.243e-4
0.289, 1.235e-4
0.290, 1.227e-4
0.291, 1.219e-4
0.292, 1.211e-4
0.293, 1.203e-4
0.294, 1.195e-4
0.295, 1.187e-4
0.296, 1.179e-4
0.297, 1.171e-4
0.298, 1.163e-4
0.299, 1.156e-4
0.300, 1.148e-4
0.301, 1.140e-4
0.302, 1.132e-4
0.303, 1.125e-4
0.304, 1.117e-4
0.305, 1.109e-4
0.306, 1.102e-4
0.307, 1.094e-4
0.308, 1.087e-4
0.309, 1.080e-4
0.310, 1.072e-4
0.311, 1.065e-4
0.312, 1.058e-4
0.313, 1.051e-4
0.314, 1.044e-4
0.315, 1.037e-4
0.316, 1.030e-4
0.317, 1.023e-4
0.318, 1.016e-4
0.319, 1.010e-4
0.320, 1.003e-4
0.321, 9.965e-5
0.322, 9.900e-5
0.323, 9.836e-5
0.324, 9.772e-5
0.325, 9.708e-5
0.326, 9.645e-5
0.327, 9.583e-5
0.328, 9.522e-5
0.329, 9.461e-5
0.330, 9.400e-5
0.331, 9.341e-5
0.332, 9.283e-5
0.333, 9.225e-5
0.334, 9.167e-5
0.335, 9.110e-5
0.336, 9.054e-5
0.337, 8.998e-5
0.338, 8.942e-5
0.339, 8.887e-5
0.340, 8.833e-5
0.341, 8.779e-5
0.342, 8.727e-5
0.343, 8.675e-5
0.344, 8.623e-5
0.345, 8.572e-5
0.346, 8.522e-5
0.347, 8.471e-5
0.348, 8.421e-5
0.349, 8.371e-5
0.350, 8.322e-5
0.351, 8.274e-5
0.352, 8.226e-5
0.353, 8.179e-5
0.354, 8.132e-5
0.355, 8.086e-5
0.356, 8.041e-5
0.357, 7.997e-5
0.358, 7.953e-5
0.359, 7.909e-5
0.360, 7.865e-5
0.361, 7.821e-5
0.362, 7.778e-5
0.363, 7.736e-5
0.364, 7.693e-5
0.365, 7.652e-5
0.366, 7.611e-5
0.367, 7.570e-5
0.368, 7.530e-5
0.369, 7.490e-5
0.370, 7.450e-5
0.371, 7.412e-5
0.372, 7.373e-5
0.373, 7.335e-5
0.374, 7.297e-5
0.375, 7.260e-5
0.376, 7.223e-5
0.377, 7.186e-5
0.378, 7.150e-5
0.379, 7.114e-5
0.380, 7.078e-5
0.381, 7.044e-5
0.382, 7.009e-5
0.383, 6.975e-5
0.384, 6.942e-5
0.385, 6.908e-5
0.386, 6.874e-5
0.387, 6.840e-5
0.388, 6.807e-5
0.389, 6.774e-5
0.390, 6.742e-5
0.391, 6.711e-5
0.392, 6.679e-5
0.393, 6.648e-5
0.394, 6.617e-5
0.395, 6.587e-5
0.396, 6.556e-5
0.397, 6.526e-5
0.398, 6.497e-5
0.399, 6.468e-5
0.400, 6.438e-5
0.401, 6.410e-5
0.402, 6.380e-5
0.403, 6.351e-5
0.404, 6.322e-5
0.405, 6.294e-5
0.406, 6.266e-5
0.407, 6.240e-5
0.408, 6.214e-5
0.409, 6.187e-5
0.410, 6.161e-5
0.411, 6.135e-5
0.412, 6.109e-5
0.413, 6.082e-5
0.414, 6.056e-5
0.415, 6.030e-5
0.416, 6.005e-5
0.417, 5.980e-5
0.418, 5.955e-5
0.419, 5.931e-5
0.420, 5.906e-5
0.421, 5.882e-5
0.422, 5.858e-5
0.423, 5.834e-5
0.424, 5.810e-5
0.425, 5.786e-5
0.426, 5.763e-5
0.427, 5.739e-5
0.428, 5.716e-5
0.429, 5.694e-5
0.430, 5.672e-5
0.431, 5.650e-5
0.432, 5.628e-5
0.433, 5.606e-5
0.434, 5.584e-5
0.435, 5.563e-5
0.436, 5.542e-5
0.437, 5.522e-5
0.438, 5.501e-5
0.439, 5.480e-5
0.440, 5.459e-5
0.441, 5.439e-5
0.442, 5.418e-5
0.443, 5.397e-5
0.444, 5.377e-5
0.445, 5.357e-5
0.446, 5.339e-5
0.447, 5.320e-5
0.448, 5.300e-5
0.449, 5.281e-5
0.450, 5.262e-5
0.451, 5.243e-5
0.452, 5.224e-5
0.453, 5.206e-5
0.454, 5.187e-5
0.455, 5.169e-5
0.456, 5.151e-5
0.457, 5.132e-5
0.458, 5.114e-5
0.459, 5.096e-5
0.460, 5.079e-5
0.461, 5.062e-5
0.462, 5.045e-5
0.463, 5.028e-5
0.464, 5.011e-5
0.465, 4.994e-5
0.466, 4.977e-5
0.467, 4.960e-5
0.468, 4.943e-5
0.469, 4.926e-5
0.470, 4.910e-5
0.471, 4.894e-5
0.472, 4.878e-5
0.473, 4.862e-5
0.474, 4.846e-5
0.475, 4.830e-5
0.476, 4.815e-5
0.477, 4.799e-5
0.478, 4.784e-5
0.479, 4.768e-5
0.480, 4.753e-5
0.481, 4.738e-5
0.482, 4.724e-5
0.483, 4.709e-5
0.484, 4.694e-5
0.485, 4.679e-5
0.486, 4.665e-5
0.487, 4.651e-5
0.488, 4.636e-5
0.489, 4.621e-5
0.490, 4.607e-5
0.491, 4.593e-5
0.492, 4.579e-5
0.493, 4.566e-5
0.494, 4.552e-5
0.495, 4.538e-5
0.496, 4.525e-5
0.497, 4.511e-5
0.498, 4.498e-5
0.499, 4.485e-5
