10 mM/l
Potential/V, Current/A
0.500, 5.789e-6
0.499, 5.708e-6
0.498, 5.643e-6
0.497, 5.594e-6
0.496, 5.569e-6
0.495, 5.554e-6
0.494, 5.540e-6
0.493, 5.523e-6
0.492, 5.509e-6
0.491, 5.497e-6
0.490, 5.487e-6
0.489, 5.475e-6
0.488, 5.463e-6
0.487, 5.450e-6
0.486, 5.436e-6
0.485, 5.421e-6
0.484, 5.407e-6
0.483, 5.393e-6
0.482, 5.382e-6
0.481, 5.368e-6
0.480, 5.352e-6
0.479, 5.333e-6
0.478, 5.316e-6
0.477, 5.305e-6
0.476, 5.301e-6
0.475, 5.299e-6
0.474, 5.294e-6
0.473, 5.285e-6
0.472, 5.273e-6
0.471, 5.261e-6
0.470, 5.249e-6
0.469, 5.239e-6
0.468, 5.230e-6
0.467, 5.221e-6
0.466, 5.207e-6
0.465, 5.191e-6
0.464, 5.177e-6
0.463, 5.168e-6
0.462, 5.162e-6
0.461, 5.153e-6
0.460, 5.141e-6
0.459, 5.125e-6
0.458, 5.111e-6
0.457, 5.098e-6
0.456, 5.083e-6
0.455, 5.067e-6
0.454, 5.055e-6
0.453, 5.048e-6
0.452, 5.047e-6
0.451, 5.044e-6
0.450, 5.035e-6
0.449, 5.025e-6
0.448, 5.017e-6
0.447, 5.010e-6
0.446, 5.001e-6
0.445, 4.987e-6
0.444, 4.971e-6
0.443, 4.957e-6
0.442, 4.948e-6
0.441, 4.939e-6
0.440, 4.929e-6
0.439, 4.917e-6
0.438, 4.906e-6
0.437, 4.896e-6
0.436, 4.885e-6
0.435, 4.872e-6
0.434, 4.857e-6
0.433, 4.841e-6
0.432, 4.831e-6
0.431, 4.820e-6
0.430, 4.812e-6
0.429, 4.804e-6
0.428, 4.795e-6
0.427, 4.785e-6
0.426, 4.773e-6
0.425, 4.757e-6
0.424, 4.738e-6
0.423, 4.720e-6
0.422, 4.709e-6
0.421, 4.698e-6
0.420, 4.688e-6
0.419, 4.672e-6
0.418, 4.652e-6
0.417, 4.634e-6
0.416, 4.619e-6
0.415, 4.605e-6
0.414, 4.593e-6
0.413, 4.580e-6
0.412, 4.568e-6
0.411, 4.559e-6
0.410, 4.549e-6
0.409, 4.540e-6
0.408, 4.529e-6
0.407, 4.515e-6
0.406, 4.502e-6
0.405, 4.486e-6
0.404, 4.470e-6
0.403, 4.455e-6
0.402, 4.441e-6
0.401, 4.424e-6
0.400, 4.407e-6
0.399, 4.387e-6
0.398, 4.366e-6
0.397, 4.345e-6
0.396, 4.324e-6
0.395, 4.304e-6
0.394, 4.288e-6
0.393, 4.270e-6
0.392, 4.253e-6
0.391, 4.235e-6
0.390, 4.215e-6
0.389, 4.193e-6
0.388, 4.169e-6
0.387, 4.141e-6
0.386, 4.114e-6
0.385, 4.090e-6
0.384, 4.073e-6
0.383, 4.058e-6
0.382, 4.040e-6
0.381, 4.017e-6
0.380, 3.991e-6
0.379, 3.962e-6
0.378, 3.935e-6
0.377, 3.907e-6
0.376, 3.876e-6
0.375, 3.847e-6
0.374, 3.819e-6
0.373, 3.791e-6
0.372, 3.765e-6
0.371, 3.736e-6
0.370, 3.701e-6
0.369, 3.666e-6
0.368, 3.630e-6
0.367, 3.595e-6
0.366, 3.562e-6
0.365, 3.526e-6
0.364, 3.489e-6
0.363, 3.451e-6
0.362, 3.413e-6
0.361, 3.374e-6
0.360, 3.333e-6
0.359, 3.286e-6
0.358, 3.239e-6
0.357, 3.194e-6
0.356, 3.152e-6
0.355, 3.109e-6
0.354, 3.067e-6
0.353, 3.020e-6
0.352, 2.970e-6
0.351, 2.917e-6
0.350, 2.859e-6
0.349, 2.800e-6
0.348, 2.743e-6
0.347, 2.688e-6
0.346, 2.632e-6
0.345, 2.573e-6
0.344, 2.510e-6
0.343, 2.442e-6
0.342, 2.373e-6
0.341, 2.305e-6
0.340, 2.236e-6
0.339, 2.167e-6
0.338, 2.097e-6
0.337, 2.021e-6
0.336, 1.938e-6
0.335, 1.852e-6
0.334, 1.762e-6
0.333, 1.673e-6
0.332, 1.585e-6
0.331, 1.493e-6
0.330, 1.398e-6
0.329, 1.304e-6
0.328, 1.207e-6
0.327, 1.110e-6
0.326, 1.010e-6
0.325, 9.006e-7
0.324, 7.857e-7
0.323, 6.679e-7
0.322, 5.464e-7
0.321, 4.203e-7
0.320, 2.914e-7
0.319, 1.601e-7
0.318, 2.705e-8
0.317, -1.052e-7
0.316, -2.406e-7
0.315, -3.832e-7
0.314, -5.318e-7
0.313, -6.837e-7
0.312, -8.404e-7
0.311, -1.002e-6
0.310, -1.171e-6
0.309, -1.344e-6
0.308, -1.522e-6
0.307, -1.701e-6
0.306, -1.884e-6
0.305, -2.075e-6
0.304, -2.274e-6
0.303, -2.476e-6
0.302, -2.681e-6
0.301, -2.889e-6
0.300, -3.106e-6
0.299, -3.333e-6
0.298, -3.568e-6
0.297, -3.807e-6
0.296, -4.053e-6
0.295, -4.308e-6
0.294, -4.575e-6
0.293, -4.850e-6
0.292, -5.125e-6
0.291, -5.405e-6
0.290, -5.694e-6
0.289, -5.991e-6
0.288, -6.299e-6
0.287, -6.612e-6
0.286, -6.930e-6
0.285, -7.261e-6
0.284, -7.604e-6
0.283, -7.958e-6
0.282, -8.323e-6
0.281, -8.694e-6
0.280, -9.074e-6
0.279, -9.467e-6
0.278, -9.867e-6
0.277, -1.027e-5
0.276, -1.069e-5
0.275, -1.112e-5
0.274, -1.157e-5
0.273, -1.202e-5
0.272, -1.248e-5
0.271, -1.296e-5
0.270, -1.345e-5
0.269, -1.396e-5
0.268, -1.447e-5
0.267, -1.499e-5
0.266, -1.553e-5
0.265, -1.608e-5
0.264, -1.664e-5
0.263, -1.723e-5
0.262, -1.782e-5
0.261, -1.842e-5
0.260, -1.904e-5
0.259, -1.968e-5
0.258, -2.034e-5
0.257, -2.100e-5
0.256, -2.169e-5
0.255, -2.239e-5
0.254, -2.311e-5
0.253, -2.384e-5
0.252, -2.458e-5
0.251, -2.532e-5
0.250, -2.609e-5
0.249, -2.689e-5
0.248, -2.770e-5
0.247, -2.852e-5
0.246, -2.935e-5
0.245, -3.020e-5
0.244, -3.108e-5
0.243, -3.197e-5
0.242, -3.288e-5
0.241, -3.381e-5
0.240, -3.475e-5
0.239, -3.572e-5
0.238, -3.669e-5
0.237, -3.769e-5
0.236, -3.869e-5
0.235, -3.972e-5
0.234, -4.078e-5
0.233, -4.186e-5
0.232, -4.295e-5
0.231, -4.406e-5
0.230, -4.520e-5
0.229, -4.635e-5
0.228, -4.752e-5
0.227, -4.870e-5
0.226, -4.989e-5
0.225, -5.110e-5
0.224, -5.234e-5
0.223, -5.358e-5
0.222, -5.484e-5
0.221, -5.611e-5
0.220, -5.740e-5
0.219, -5.873e-5
0.218, -6.008e-5
0.217, -6.144e-5
0.216, -6.281e-5
0.215, -6.420e-5
0.214, -6.561e-5
0.213, -6.703e-5
0.212, -6.845e-5
0.211, -6.988e-5
0.210, -7.132e-5
0.209, -7.279e-5
0.208, -7.428e-5
0.207, -7.577e-5
0.206, -7.727e-5
0.205, -7.877e-5
0.204, -8.030e-5
0.203, -8.184e-5
0.202, -8.339e-5
0.201, -8.494e-5
0.200, -8.651e-5
0.199, -8.810e-5
0.198, -8.969e-5
0.197, -9.130e-5
0.196, -9.291e-5
0.195, -9.453e-5
0.194, -9.617e-5
0.193, -9.782e-5
0.192, -9.946e-5
0.191, -1.011e-4
0.190, -1.027e-4
0.189, -1.044e-4
0.188, -1.060e-4
0.187, -1.077e-4
0.186, -1.093e-4
0.185, -1.110e-4
0.184, -1.126e-4
0.183, -1.143e-4
0.182, -1.159e-4
0.181, -1.176e-4
0.180, -1.192e-4
0.179, -1.209e-4
0.178, -1.226e-4
0.177, -1.242e-4
0.176, -1.258e-4
0.175, -1.274e-4
0.174, -1.290e-4
0.173, -1.306e-4
0.172, -1.322e-4
0.171, -1.337e-4
0.170, -1.353e-4
0.169, -1.368e-4
0.168, -1.384e-4
0.167, -1.399e-4
0.166, -1.414e-4
0.165, -1.429e-4
0.164, -1.444e-4
0.163, -1.458e-4
0.162, -1.473e-4
0.161, -1.487e-4
0.160, -1.500e-4
0.159, -1.514e-4
0.158, -1.528e-4
0.157, -1.541e-4
0.156, -1.555e-4
0.155, -1.568e-4
0.154, -1.581e-4
0.153, -1.593e-4
0.152, -1.606e-4
0.151, -1.618e-4
0.150, -1.629e-4
0.149, -1.641e-4
0.148, -1.652e-4
0.147, -1.663e-4
0.146, -1.674e-4
0.145, -1.684e-4
0.144, -1.694e-4
0.143, -1.704e-4
0.142, -1.714e-4
0.141, -1.723e-4
0.140, -1.732e-4
0.139, -1.741e-4
0.138, -1.750e-4
0.137, -1.758e-4
0.136, -1.765e-4
0.135, -1.773e-4
0.134, -1.780e-4
0.133, -1.787e-4
0.132, -1.794e-4
0.131, -1.801e-4
0.130, -1.807e-4
0.129, -1.813e-4
0.128, -1.819e-4
0.127, -1.824e-4
0.126, -1.829e-4
0.125, -1.834e-4
0.124, -1.838e-4
0.123, -1.843e-4
0.122, -1.846e-4
0.121, -1.850e-4
0.120, -1.853e-4
0.119, -1.856e-4
0.118, -1.859e-4
0.117, -1.861e-4
0.116, -1.864e-4
0.115, -1.866e-4
0.114, -1.867e-4
0.113, -1.869e-4
0.112, -1.870e-4
0.111, -1.871e-4
0.110, -1.872e-4
0.109, -1.872e-4
0.108, -1.873e-4
0.107, -1.873e-4
0.106, -1.873e-4
0.105, -1.872e-4
0.104, -1.872e-4
0.103, -1.871e-4
0.102, -1.870e-4
0.101, -1.869e-4
0.100, -1.868e-4
0.099, -1.866e-4
0.098, -1.864e-4
0.097, -1.862e-4
0.096, -1.860e-4
0.095, -1.858e-4
0.094, -1.855e-4
0.093, -1.853e-4
0.092, -1.850e-4
0.091, -1.847e-4
0.090, -1.844e-4
0.089, -1.841e-4
0.088, -1.838e-4
0.087, -1.834e-4
0.086, -1.831e-4
0.085, -1.827e-4
0.084, -1.823e-4
0.083, -1.819e-4
0.082, -1.815e-4
0.081, -1.811e-4
0.080, -1.807e-4
0.079, -1.803e-4
0.078, -1.799e-4
0.077, -1.794e-4
0.076, -1.790e-4
0.075, -1.786e-4
0.074, -1.781e-4
0.073, -1.776e-4
0.072, -1.771e-4
0.071, -1.766e-4
0.070, -1.761e-4
0.069, -1.756e-4
0.068, -1.751e-4
0.067, -1.746e-4
0.066, -1.741e-4
0.065, -1.736e-4
0.064, -1.731e-4
0.063, -1.726e-4
0.062, -1.721e-4
0.061, -1.715e-4
0.060, -1.710e-4
0.059, -1.704e-4
0.058, -1.699e-4
0.057, -1.693e-4
0.056, -1.688e-4
0.055, -1.682e-4
0.054, -1.677e-4
0.053, -1.672e-4
0.052, -1.666e-4
0.051, -1.661e-4
0.050, -1.656e-4
0.049, -1.650e-4
0.048, -1.645e-4
0.047, -1.639e-4
0.046, -1.634e-4
0.045, -1.628e-4
0.044, -1.623e-4
0.043, -1.617e-4
0.042, -1.612e-4
0.041, -1.606e-4
0.040, -1.601e-4
0.039, -1.595e-4
0.038, -1.590e-4
0.037, -1.585e-4
0.036, -1.579e-4
0.035, -1.574e-4
0.034, -1.568e-4
0.033, -1.563e-4
0.032, -1.558e-4
0.031, -1.552e-4
0.030, -1.547e-4
0.029, -1.542e-4
0.028, -1.537e-4
0.027, -1.531e-4
0.026, -1.526e-4
0.025, -1.521e-4
0.024, -1.516e-4
0.023, -1.511e-4
0.022, -1.506e-4
0.021, -1.500e-4
0.020, -1.495e-4
0.019, -1.490e-4
0.018, -1.485e-4
0.017, -1.480e-4
0.016, -1.475e-4
0.015, -1.470e-4
0.014, -1.466e-4
0.013, -1.461e-4
0.012, -1.456e-4
0.011, -1.451e-4
0.010, -1.446e-4
0.009, -1.441e-4
0.008, -1.437e-4
0.007, -1.432e-4
0.006, -1.427e-4
0.005, -1.422e-4
0.004, -1.418e-4
0.003, -1.413e-4
0.002, -1.408e-4
0.001, -1.404e-4
0.000, -1.400e-4
-0.001, -1.395e-4
-0.002, -1.391e-4
-0.003, -1.386e-4
-0.004, -1.382e-4
-0.005, -1.377e-4
-0.006, -1.373e-4
-0.007, -1.368e-4
-0.008, -1.364e-4
-0.009, -1.360e-4
-0.010, -1.355e-4
-0.011, -1.351e-4
-0.012, -1.347e-4
-0.013, -1.343e-4
-0.014, -1.339e-4
-0.015, -1.335e-4
-0.016, -1.331e-4
-0.017, -1.327e-4
-0.018, -1.323e-4
-0.019, -1.318e-4
-0.020, -1.314e-4
-0.021, -1.310e-4
-0.022, -1.307e-4
-0.023, -1.303e-4
-0.024, -1.299e-4
-0.025, -1.295e-4
-0.026, -1.291e-4
-0.027, -1.288e-4
-0.028, -1.284e-4
-0.029, -1.280e-4
-0.030, -1.276e-4
-0.031, -1.272e-4
-0.032, -1.269e-4
-0.033, -1.265e-4
-0.034, -1.261e-4
-0.035, -1.258e-4
-0.036, -1.254e-4
-0.037, -1.251e-4
-0.038, -1.247e-4
-0.039, -1.244e-4
-0.040, -1.240e-4
-0.041, -1.237e-4
-0.042, -1.233e-4
-0.043, -1.230e-4
-0.044, -1.227e-4
-0.045, -1.223e-4
-0.046, -1.220e-4
-0.047, -1.216e-4
-0.048, -1.213e-4
-0.049, -1.210e-4
-0.050, -1.207e-4
-0.051, -1.204e-4
-0.052, -1.200e-4
-0.053, -1.197e-4
-0.054, -1.194e-4
-0.055, -1.191e-4
-0.056, -1.188e-4
-0.057, -1.185e-4
-0.058, -1.182e-4
-0.059, -1.178e-4
-0.060, -1.175e-4
-0.061, -1.172e-4
-0.062, -1.169e-4
-0.063, -1.167e-4
-0.064, -1.164e-4
-0.065, -1.161e-4
-0.066, -1.158e-4
-0.067, -1.155e-4
-0.068, -1.152e-4
-0.069, -1.149e-4
-0.070, -1.146e-4
-0.071, -1.143e-4
-0.072, -1.141e-4
-0.073, -1.138e-4
-0.074, -1.135e-4
-0.075, -1.132e-4
-0.076, -1.130e-4
-0.077, -1.127e-4
-0.078, -1.124e-4
-0.079, -1.121e-4
-0.080, -1.119e-4
-0.081, -1.116e-4
-0.082, -1.114e-4
-0.083, -1.111e-4
-0.084, -1.108e-4
-0.085, -1.106e-4
-0.086, -1.103e-4
-0.087, -1.101e-4
-0.088, -1.098e-4
-0.089, -1.096e-4
-0.090, -1.093e-4
-0.091, -1.091e-4
-0.092, -1.088e-4
-0.093, -1.086e-4
-0.094, -1.083e-4
-0.095, -1.081e-4
-0.096, -1.078e-4
-0.097, -1.076e-4
-0.098, -1.074e-4
-0.099, -1.071e-4
-0.100, -1.069e-4
-0.101, -1.067e-4
-0.102, -1.064e-4
-0.103, -1.062e-4
-0.104, -1.060e-4
-0.105, -1.057e-4
-0.106, -1.055e-4
-0.107, -1.053e-4
-0.108, -1.051e-4
-0.109, -1.049e-4
-0.110, -1.046e-4
-0.111, -1.044e-4
-0.112, -1.042e-4
-0.113, -1.040e-4
-0.114, -1.038e-4
-0.115, -1.035e-4
-0.116, -1.033e-4
-0.117, -1.031e-4
-0.118, -1.029e-4
-0.119, -1.027e-4
-0.120, -1.025e-4
-0.121, -1.023e-4
-0.122, -1.021e-4
-0.123, -1.019e-4
-0.124, -1.017e-4
-0.125, -1.015e-4
-0.126, -1.013e-4
-0.127, -1.011e-4
-0.128, -1.009e-4
-0.129, -1.007e-4
-0.130, -1.005e-4
-0.131, -1.003e-4
-0.132, -1.001e-4
-0.133, -9.990e-5
-0.134, -9.971e-5
-0.135, -9.952e-5
-0.136, -9.934e-5
-0.137, -9.916e-5
-0.138, -9.897e-5
-0.139, -9.879e-5
-0.140, -9.860e-5
-0.141, -9.842e-5
-0.142, -9.824e-5
-0.143, -9.806e-5
-0.144, -9.787e-5
-0.145, -9.769e-5
-0.146, -9.751e-5
-0.147, -9.733e-5
-0.148, -9.716e-5
-0.149, -9.699e-5
-0.150, -9.681e-5
-0.151, -9.663e-5
-0.152, -9.646e-5
-0.153, -9.628e-5
-0.154, -9.612e-5
-0.155, -9.595e-5
-0.156, -9.578e-5
-0.157, -9.561e-5
-0.158, -9.544e-5
-0.159, -9.527e-5
-0.160, -9.511e-5
-0.161, -9.494e-5
-0.162, -9.478e-5
-0.163, -9.462e-5
-0.164, -9.445e-5
-0.165, -9.430e-5
-0.166, -9.413e-5
-0.167, -9.397e-5
-0.168, -9.380e-5
-0.169, -9.364e-5
-0.170, -9.349e-5
-0.171, -9.334e-5
-0.172, -9.319e-5
-0.173, -9.303e-5
-0.174, -9.287e-5
-0.175, -9.272e-5
-0.176, -9.257e-5
-0.177, -9.242e-5
-0.178, -9.228e-5
-0.179, -9.213e-5
-0.180, -9.198e-5
-0.181, -9.182e-5
-0.182, -9.167e-5
-0.183, -9.152e-5
-0.184, -9.137e-5
-0.185, -9.123e-5
-0.186, -9.109e-5
-0.187, -9.095e-5
-0.188, -9.081e-5
-0.189, -9.066e-5
-0.190, -9.052e-5
-0.191, -9.038e-5
-0.192, -9.024e-5
-0.193, -9.009e-5
-0.194, -8.996e-5
-0.195, -8.982e-5
-0.196, -8.968e-5
-0.197, -8.955e-5
-0.198, -8.942e-5
-0.199, -8.930e-5
-0.200, -8.881e-5
-0.199, -8.838e-5
-0.198, -8.800e-5
-0.197, -8.768e-5
-0.196, -8.743e-5
-0.195, -8.722e-5
-0.194, -8.701e-5
-0.193, -8.680e-5
-0.192, -8.660e-5
-0.191, -8.640e-5
-0.190, -8.621e-5
-0.189, -8.603e-5
-0.188, -8.584e-5
-0.187, -8.566e-5
-0.186, -8.549e-5
-0.185, -8.532e-5
-0.184, -8.515e-5
-0.183, -8.497e-5
-0.182, -8.480e-5
-0.181, -8.463e-5
-0.180, -8.446e-5
-0.179, -8.430e-5
-0.178, -8.413e-5
-0.177, -8.397e-5
-0.176, -8.381e-5
-0.175, -8.365e-5
-0.174, -8.349e-5
-0.173, -8.334e-5
-0.172, -8.319e-5
-0.171, -8.304e-5
-0.170, -8.289e-5
-0.169, -8.274e-5
-0.168, -8.259e-5
-0.167, -8.244e-5
-0.166, -8.229e-5
-0.165, -8.214e-5
-0.164, -8.199e-5
-0.163, -8.185e-5
-0.162, -8.171e-5
-0.161, -8.158e-5
-0.160, -8.145e-5
-0.159, -8.130e-5
-0.158, -8.115e-5
-0.157, -8.100e-5
-0.156, -8.086e-5
-0.155, -8.071e-5
-0.154, -8.058e-5
-0.153, -8.043e-5
-0.152, -8.030e-5
-0.151, -8.016e-5
-0.150, -8.002e-5
-0.149, -7.989e-5
-0.148, -7.976e-5
-0.147, -7.963e-5
-0.146, -7.950e-5
-0.145, -7.937e-5
-0.144, -7.924e-5
-0.143, -7.911e-5
-0.142, -7.898e-5
-0.141, -7.885e-5
-0.140, -7.872e-5
-0.139, -7.859e-5
-0.138, -7.845e-5
-0.137, -7.832e-5
-0.136, -7.820e-5
-0.135, -7.807e-5
-0.134, -7.795e-5
-0.133, -7.782e-5
-0.132, -7.770e-5
-0.131, -7.758e-5
-0.130, -7.746e-5
-0.129, -7.733e-5
-0.128, -7.720e-5
-0.127, -7.708e-5
-0.126, -7.695e-5
-0.125, -7.683e-5
-0.124, -7.670e-5
-0.123, -7.658e-5
-0.122, -7.646e-5
-0.121, -7.634e-5
-0.120, -7.623e-5
-0.119, -7.611e-5
-0.118, -7.599e-5
-0.117, -7.587e-5
-0.116, -7.575e-5
-0.115, -7.563e-5
-0.114, -7.551e-5
-0.113, -7.539e-5
-0.112, -7.527e-5
-0.111, -7.516e-5
-0.110, -7.504e-5
-0.109, -7.492e-5
-0.108, -7.480e-5
-0.107, -7.468e-5
-0.106, -7.455e-5
-0.105, -7.444e-5
-0.104, -7.432e-5
-0.103, -7.421e-5
-0.102, -7.409e-5
-0.101, -7.397e-5
-0.100, -7.386e-5
-0.099, -7.375e-5
-0.098, -7.364e-5
-0.097, -7.353e-5
-0.096, -7.342e-5
-0.095, -7.330e-5
-0.094, -7.319e-5
-0.093, -7.307e-5
-0.092, -7.295e-5
-0.091, -7.284e-5
-0.090, -7.272e-5
-0.089, -7.261e-5
-0.088, -7.250e-5
-0.087, -7.238e-5
-0.086, -7.226e-5
-0.085, -7.215e-5
-0.084, -7.204e-5
-0.083, -7.193e-5
-0.082, -7.182e-5
-0.081, -7.172e-5
-0.080, -7.161e-5
-0.079, -7.149e-5
-0.078, -7.137e-5
-0.077, -7.125e-5
-0.076, -7.113e-5
-0.075, -7.102e-5
-0.074, -7.092e-5
-0.073, -7.081e-5
-0.072, -7.070e-5
-0.071, -7.059e-5
-0.070, -7.047e-5
-0.069, -7.037e-5
-0.068, -7.025e-5
-0.067, -7.014e-5
-0.066, -7.003e-5
-0.065, -6.992e-5
-0.064, -6.981e-5
-0.063, -6.971e-5
-0.062, -6.959e-5
-0.061, -6.947e-5
-0.060, -6.936e-5
-0.059, -6.925e-5
-0.058, -6.914e-5
-0.057, -6.902e-5
-0.056, -6.890e-5
-0.055, -6.878e-5
-0.054, -6.867e-5
-0.053, -6.856e-5
-0.052, -6.845e-5
-0.051, -6.834e-5
-0.050, -6.822e-5
-0.049, -6.810e-5
-0.048, -6.799e-5
-0.047, -6.788e-5
-0.046, -6.777e-5
-0.045, -6.766e-5
-0.044, -6.755e-5
-0.043, -6.743e-5
-0.042, -6.732e-5
-0.041, -6.721e-5
-0.040, -6.710e-5
-0.039, -6.699e-5
-0.038, -6.687e-5
-0.037, -6.674e-5
-0.036, -6.662e-5
-0.035, -6.650e-5
-0.034, -6.638e-5
-0.033, -6.627e-5
-0.032, -6.616e-5
-0.031, -6.605e-5
-0.030, -6.594e-5
-0.029, -6.583e-5
-0.028, -6.570e-5
-0.027, -6.558e-5
-0.026, -6.545e-5
-0.025, -6.533e-5
-0.024, -6.521e-5
-0.023, -6.509e-5
-0.022, -6.497e-5
-0.021, -6.485e-5
-0.020, -6.474e-5
-0.019, -6.462e-5
-0.018, -6.451e-5
-0.017, -6.438e-5
-0.016, -6.425e-5
-0.015, -6.413e-5
-0.014, -6.400e-5
-0.013, -6.388e-5
-0.012, -6.376e-5
-0.011, -6.364e-5
-0.010, -6.352e-5
-0.009, -6.340e-5
-0.008, -6.326e-5
-0.007, -6.313e-5
-0.006, -6.300e-5
-0.005, -6.288e-5
-0.004, -6.275e-5
-0.003, -6.262e-5
-0.002, -6.249e-5
-0.001, -6.235e-5
-0.000, -6.222e-5
0.001, -6.209e-5
0.002, -6.196e-5
0.003, -6.183e-5
0.004, -6.171e-5
0.005, -6.158e-5
0.006, -6.144e-5
0.007, -6.131e-5
0.008, -6.117e-5
0.009, -6.103e-5
0.010, -6.089e-5
0.011, -6.075e-5
0.012, -6.060e-5
0.013, -6.046e-5
0.014, -6.031e-5
0.015, -6.017e-5
0.016, -6.003e-5
0.017, -5.989e-5
0.018, -5.975e-5
0.019, -5.960e-5
0.020, -5.946e-5
0.021, -5.931e-5
0.022, -5.916e-5
0.023, -5.901e-5
0.024, -5.886e-5
0.025, -5.870e-5
0.026, -5.854e-5
0.027, -5.839e-5
0.028, -5.823e-5
0.029, -5.808e-5
0.030, -5.792e-5
0.031, -5.776e-5
0.032, -5.760e-5
0.033, -5.743e-5
0.034, -5.727e-5
0.035, -5.710e-5
0.036, -5.693e-5
0.037, -5.675e-5
0.038, -5.658e-5
0.039, -5.640e-5
0.040, -5.623e-5
0.041, -5.606e-5
0.042, -5.588e-5
0.043, -5.570e-5
0.044, -5.552e-5
0.045, -5.534e-5
0.046, -5.516e-5
0.047, -5.497e-5
0.048, -5.477e-5
0.049, -5.457e-5
0.050, -5.437e-5
0.051, -5.417e-5
0.052, -5.397e-5
0.053, -5.377e-5
0.054, -5.357e-5
0.055, -5.337e-5
0.056, -5.317e-5
0.057, -5.295e-5
0.058, -5.274e-5
0.059, -5.252e-5
0.060, -5.230e-5
0.061, -5.208e-5
0.062, -5.185e-5
0.063, -5.162e-5
0.064, -5.138e-5
0.065, -5.115e-5
0.066, -5.090e-5
0.067, -5.066e-5
0.068, -5.042e-5
0.069, -5.017e-5
0.070, -4.992e-5
0.071, -4.967e-5
0.072, -4.940e-5
0.073, -4.913e-5
0.074, -4.886e-5
0.075, -4.859e-5
0.076, -4.831e-5
0.077, -4.803e-5
0.078, -4.775e-5
0.079, -4.746e-5
0.080, -4.716e-5
0.081, -4.686e-5
0.082, -4.656e-5
0.083, -4.625e-5
0.084, -4.594e-5
0.085, -4.562e-5
0.086, -4.530e-5
0.087, -4.498e-5
0.088, -4.464e-5
0.089, -4.430e-5
0.090, -4.395e-5
0.091, -4.360e-5
0.092, -4.324e-5
0.093, -4.288e-5
0.094, -4.251e-5
0.095, -4.213e-5
0.096, -4.176e-5
0.097, -4.137e-5
0.098, -4.097e-5
0.099, -4.057e-5
0.100, -4.016e-5
0.101, -3.975e-5
0.102, -3.932e-5
0.103, -3.889e-5
0.104, -3.845e-5
0.105, -3.801e-5
0.106, -3.756e-5
0.107, -3.710e-5
0.108, -3.663e-5
0.109, -3.616e-5
0.110, -3.567e-5
0.111, -3.518e-5
0.112, -3.467e-5
0.113, -3.414e-5
0.114, -3.361e-5
0.115, -3.308e-5
0.116, -3.254e-5
0.117, -3.198e-5
0.118, -3.142e-5
0.119, -3.085e-5
0.120, -3.028e-5
0.121, -2.970e-5
0.122, -2.910e-5
0.123, -2.849e-5
0.124, -2.786e-5
0.125, -2.722e-5
0.126, -2.658e-5
0.127, -2.592e-5
0.128, -2.524e-5
0.129, -2.455e-5
0.130, -2.385e-5
0.131, -2.315e-5
0.132, -2.244e-5
0.133, -2.171e-5
0.134, -2.097e-5
0.135, -2.023e-5
0.136, -1.947e-5
0.137, -1.870e-5
0.138, -1.790e-5
0.139, -1.709e-5
0.140, -1.627e-5
0.141, -1.544e-5
0.142, -1.459e-5
0.143, -1.373e-5
0.144, -1.285e-5
0.145, -1.197e-5
0.146, -1.107e-5
0.147, -1.017e-5
0.148, -9.245e-6
0.149, -8.305e-6
0.150, -7.354e-6
0.151, -6.387e-6
0.152, -5.397e-6
0.153, -4.386e-6
0.154, -3.363e-6
0.155, -2.336e-6
0.156, -1.300e-6
0.157, -2.487e-7
0.158, 8.227e-7
0.159, 1.911e-6
0.160, 3.003e-6
0.161, 4.103e-6
0.162, 5.222e-6
0.163, 6.362e-6
0.164, 7.515e-6
0.165, 8.678e-6
0.166, 9.853e-6
0.167, 1.105e-5
0.168, 1.226e-5
0.169, 1.350e-5
0.170, 1.473e-5
0.171, 1.597e-5
0.172, 1.722e-5
0.173, 1.848e-5
0.174, 1.976e-5
0.175, 2.105e-5
0.176, 2.235e-5
0.177, 2.368e-5
0.178, 2.503e-5
0.179, 2.639e-5
0.180, 2.775e-5
0.181, 2.912e-5
0.182, 3.051e-5
0.183, 3.190e-5
0.184, 3.330e-5
0.185, 3.469e-5
0.186, 3.609e-5
0.187, 3.750e-5
0.188, 3.894e-5
0.189, 4.038e-5
0.190, 4.183e-5
0.191, 4.329e-5
0.192, 4.476e-5
0.193, 4.624e-5
0.194, 4.772e-5
0.195, 4.919e-5
0.196, 5.066e-5
0.197, 5.214e-5
0.198, 5.362e-5
0.199, 5.511e-5
0.200, 5.659e-5
0.201, 5.808e-5
0.202, 5.958e-5
0.203, 6.108e-5
0.204, 6.257e-5
0.205, 6.404e-5
0.206, 6.550e-5
0.207, 6.698e-5
0.208, 6.848e-5
0.209, 6.997e-5
0.210, 7.145e-5
0.211, 7.292e-5
0.212, 7.439e-5
0.213, 7.586e-5
0.214, 7.733e-5
0.215, 7.879e-5
0.216, 8.024e-5
0.217, 8.168e-5
0.218, 8.313e-5
0.219, 8.456e-5
0.220, 8.597e-5
0.221, 8.737e-5
0.222, 8.876e-5
0.223, 9.014e-5
0.224, 9.150e-5
0.225, 9.283e-5
0.226, 9.415e-5
0.227, 9.547e-5
0.228, 9.680e-5
0.229, 9.813e-5
0.230, 9.943e-5
0.231, 1.007e-4
0.232, 1.020e-4
0.233, 1.032e-4
0.234, 1.044e-4
0.235, 1.056e-4
0.236, 1.068e-4
0.237, 1.079e-4
0.238, 1.090e-4
0.239, 1.101e-4
0.240, 1.112e-4
0.241, 1.123e-4
0.242, 1.133e-4
0.243, 1.144e-4
0.244, 1.154e-4
0.245, 1.164e-4
0.246, 1.173e-4
0.247, 1.182e-4
0.248, 1.191e-4
0.249, 1.200e-4
0.250, 1.208e-4
0.251, 1.217e-4
0.252, 1.224e-4
0.253, 1.232e-4
0.254, 1.240e-4
0.255, 1.247e-4
0.256, 1.254e-4
0.257, 1.261e-4
0.258, 1.268e-4
0.259, 1.274e-4
0.260, 1.280e-4
0.261, 1.286e-4
0.262, 1.291e-4
0.263, 1.296e-4
0.264, 1.301e-4
0.265, 1.306e-4
0.266, 1.310e-4
0.267, 1.314e-4
0.268, 1.318e-4
0.269, 1.322e-4
0.270, 1.325e-4
0.271, 1.328e-4
0.272, 1.331e-4
0.273, 1.334e-4
0.274, 1.336e-4
0.275, 1.338e-4
0.276, 1.340e-4
0.277, 1.342e-4
0.278, 1.343e-4
0.279, 1.344e-4
0.280, 1.345e-4
0.281, 1.346e-4
0.282, 1.347e-4
0.283, 1.347e-4
0.284, 1.347e-4
0.285, 1.347e-4
0.286, 1.347e-4
0.287, 1.346e-4
0.288, 1.345e-4
0.289, 1.344e-4
0.290, 1.343e-4
0.291, 1.342e-4
0.292, 1.340e-4
0.293, 1.338e-4
0.294, 1.337e-4
0.295, 1.335e-4
0.296, 1.333e-4
0.297, 1.330e-4
0.298, 1.328e-4
0.299, 1.325e-4
0.300, 1.322e-4
0.301, 1.319e-4
0.302, 1.316e-4
0.303, 1.313e-4
0.304, 1.309e-4
0.305, 1.306e-4
0.306, 1.302e-4
0.307, 1.299e-4
0.308, 1.295e-4
0.309, 1.291e-4
0.310, 1.287e-4
0.311, 1.283e-4
0.312, 1.278e-4
0.313, 1.274e-4
0.314, 1.270e-4
0.315, 1.265e-4
0.316, 1.261e-4
0.317, 1.256e-4
0.318, 1.251e-4
0.319, 1.247e-4
0.320, 1.242e-4
0.321, 1.237e-4
0.322, 1.232e-4
0.323, 1.227e-4
0.324, 1.222e-4
0.325, 1.217e-4
0.326, 1.212e-4
0.327, 1.206e-4
0.328, 1.201e-4
0.329, 1.196e-4
0.330, 1.191e-4
0.331, 1.185e-4
0.332, 1.180e-4
0.333, 1.175e-4
0.334, 1.170e-4
0.335, 1.164e-4
0.336, 1.159e-4
0.337, 1.153e-4
0.338, 1.148e-4
0.339, 1.142e-4
0.340, 1.137e-4
0.341, 1.131e-4
0.342, 1.126e-4
0.343, 1.121e-4
0.344, 1.115e-4
0.345, 1.110e-4
0.346, 1.104e-4
0.347, 1.099e-4
0.348, 1.093e-4
0.349, 1.088e-4
0.350, 1.082e-4
0.351, 1.077e-4
0.352, 1.071e-4
0.353, 1.066e-4
0.354, 1.061e-4
0.355, 1.055e-4
0.356, 1.050e-4
0.357, 1.045e-4
0.358, 1.039e-4
0.359, 1.034e-4
0.360, 1.029e-4
0.361, 1.024e-4
0.362, 1.018e-4
0.363, 1.013e-4
0.364, 1.008e-4
0.365, 1.003e-4
0.366, 9.977e-5
0.367, 9.926e-5
0.368, 9.875e-5
0.369, 9.824e-5
0.370, 9.774e-5
0.371, 9.724e-5
0.372, 9.674e-5
0.373, 9.625e-5
0.374, 9.576e-5
0.375, 9.527e-5
0.376, 9.478e-5
0.377, 9.430e-5
0.378, 9.383e-5
0.379, 9.335e-5
0.380, 9.288e-5
0.381, 9.241e-5
0.382, 9.194e-5
0.383, 9.148e-5
0.384, 9.102e-5
0.385, 9.056e-5
0.386, 9.010e-5
0.387, 8.965e-5
0.388, 8.920e-5
0.389, 8.876e-5
0.390, 8.831e-5
0.391, 8.786e-5
0.392, 8.742e-5
0.393, 8.699e-5
0.394, 8.656e-5
0.395, 8.614e-5
0.396, 8.572e-5
0.397, 8.530e-5
0.398, 8.489e-5
0.399, 8.448e-5
0.400, 8.407e-5
0.401, 8.366e-5
0.402, 8.325e-5
0.403, 8.285e-5
0.404, 8.245e-5
0.405, 8.204e-5
0.406, 8.165e-5
0.407, 8.125e-5
0.408, 8.087e-5
0.409, 8.050e-5
0.410, 8.013e-5
0.411, 7.976e-5
0.412, 7.938e-5
0.413, 7.901e-5
0.414, 7.863e-5
0.415, 7.826e-5
0.416, 7.789e-5
0.417, 7.753e-5
0.418, 7.717e-5
0.419, 7.682e-5
0.420, 7.646e-5
0.421, 7.612e-5
0.422, 7.577e-5
0.423, 7.543e-5
0.424, 7.508e-5
0.425, 7.474e-5
0.426, 7.440e-5
0.427, 7.407e-5
0.428, 7.374e-5
0.429, 7.340e-5
0.430, 7.307e-5
0.431, 7.275e-5
0.432, 7.244e-5
0.433, 7.212e-5
0.434, 7.181e-5
0.435, 7.149e-5
0.436, 7.118e-5
0.437, 7.087e-5
0.438, 7.056e-5
0.439, 7.026e-5
0.440, 6.996e-5
0.441, 6.966e-5
0.442, 6.937e-5
0.443, 6.907e-5
0.444, 6.878e-5
0.445, 6.849e-5
0.446, 6.820e-5
0.447, 6.791e-5
0.448, 6.763e-5
0.449, 6.735e-5
0.450, 6.707e-5
0.451, 6.680e-5
0.452, 6.653e-5
0.453, 6.626e-5
0.454, 6.599e-5
0.455, 6.572e-5
0.456, 6.545e-5
0.457, 6.518e-5
0.458, 6.493e-5
0.459, 6.467e-5
0.460, 6.441e-5
0.461, 6.415e-5
0.462, 6.390e-5
0.463, 6.365e-5
0.464, 6.340e-5
0.465, 6.315e-5
0.466, 6.290e-5
0.467, 6.266e-5
0.468, 6.242e-5
0.469, 6.218e-5
0.470, 6.193e-5
0.471, 6.169e-5
0.472, 6.146e-5
0.473, 6.123e-5
0.474, 6.100e-5
0.475, 6.077e-5
0.476, 6.055e-5
0.477, 6.032e-5
0.478, 6.009e-5
0.479, 5.986e-5
0.480, 5.963e-5
0.481, 5.941e-5
0.482, 5.919e-5
0.483, 5.897e-5
0.484, 5.876e-5
0.485, 5.855e-5
0.486, 5.833e-5
0.487, 5.812e-5
0.488, 5.791e-5
0.489, 5.771e-5
0.490, 5.750e-5
0.491, 5.729e-5
0.492, 5.708e-5
0.493, 5.688e-5
0.494, 5.668e-5
0.495, 5.649e-5
0.496, 5.630e-5
0.497, 5.610e-5
0.498, 5.590e-5
0.499, 5.570e-5
