6 mM/l
Potential/V, Current/A
0.500, 4.547e-6
0.499, 4.505e-6
0.498, 4.468e-6
0.497, 4.435e-6
0.496, 4.409e-6
0.495, 4.387e-6
0.494, 4.366e-6
0.493, 4.346e-6
0.492, 4.330e-6
0.491, 4.317e-6
0.490, 4.305e-6
0.489, 4.294e-6
0.488, 4.284e-6
0.487, 4.271e-6
0.486, 4.256e-6
0.485, 4.240e-6
0.484, 4.226e-6
0.483, 4.212e-6
0.482, 4.202e-6
0.481, 4.192e-6
0.480, 4.183e-6
0.479, 4.173e-6
0.478, 4.163e-6
0.477, 4.149e-6
0.476, 4.134e-6
0.475, 4.118e-6
0.474, 4.103e-6
0.473, 4.090e-6
0.472, 4.079e-6
0.471, 4.068e-6
0.470, 4.059e-6
0.469, 4.054e-6
0.468, 4.050e-6
0.467, 4.046e-6
0.466, 4.040e-6
0.465, 4.031e-6
0.464, 4.021e-6
0.463, 4.009e-6
0.462, 3.994e-6
0.461, 3.981e-6
0.460, 3.969e-6
0.459, 3.960e-6
0.458, 3.954e-6
0.457, 3.948e-6
0.456, 3.938e-6
0.455, 3.928e-6
0.454, 3.918e-6
0.453, 3.906e-6
0.452, 3.897e-6
0.451, 3.887e-6
0.450, 3.877e-6
0.449, 3.867e-6
0.448, 3.856e-6
0.447, 3.841e-6
0.446, 3.828e-6
0.445, 3.816e-6
0.444, 3.807e-6
0.443, 3.801e-6
0.442, 3.795e-6
0.441, 3.785e-6
0.440, 3.776e-6
0.439, 3.765e-6
0.438, 3.753e-6
0.437, 3.744e-6
0.436, 3.734e-6
0.435, 3.724e-6
0.434, 3.714e-6
0.433, 3.703e-6
0.432, 3.689e-6
0.431, 3.679e-6
0.430, 3.671e-6
0.429, 3.665e-6
0.428, 3.657e-6
0.427, 3.646e-6
0.426, 3.629e-6
0.425, 3.614e-6
0.424, 3.601e-6
0.423, 3.594e-6
0.422, 3.589e-6
0.421, 3.581e-6
0.420, 3.568e-6
0.419, 3.555e-6
0.418, 3.541e-6
0.417, 3.530e-6
0.416, 3.519e-6
0.415, 3.506e-6
0.414, 3.493e-6
0.413, 3.479e-6
0.412, 3.468e-6
0.411, 3.459e-6
0.410, 3.449e-6
0.409, 3.439e-6
0.408, 3.429e-6
0.407, 3.415e-6
0.406, 3.401e-6
0.405, 3.385e-6
0.404, 3.370e-6
0.403, 3.357e-6
0.402, 3.347e-6
0.401, 3.336e-6
0.400, 3.323e-6
0.399, 3.309e-6
0.398, 3.297e-6
0.397, 3.285e-6
0.396, 3.275e-6
0.395, 3.263e-6
0.394, 3.248e-6
0.393, 3.231e-6
0.392, 3.217e-6
0.391, 3.206e-6
0.390, 3.195e-6
0.389, 3.180e-6
0.388, 3.160e-6
0.387, 3.137e-6
0.386, 3.115e-6
0.385, 3.100e-6
0.384, 3.091e-6
0.383, 3.082e-6
0.382, 3.073e-6
0.381, 3.059e-6
0.380, 3.041e-6
0.379, 3.021e-6
0.378, 3.004e-6
0.377, 2.987e-6
0.376, 2.973e-6
0.375, 2.957e-6
0.374, 2.940e-6
0.373, 2.920e-6
0.372, 2.898e-6
0.371, 2.879e-6
0.370, 2.858e-6
0.369, 2.836e-6
0.368, 2.818e-6
0.367, 2.797e-6
0.366, 2.775e-6
0.365, 2.756e-6
0.364, 2.736e-6
0.363, 2.716e-6
0.362, 2.696e-6
0.361, 2.671e-6
0.360, 2.644e-6
0.359, 2.617e-6
0.358, 2.592e-6
0.357, 2.571e-6
0.356, 2.552e-6
0.355, 2.533e-6
0.354, 2.513e-6
0.353, 2.489e-6
0.352, 2.461e-6
0.351, 2.431e-6
0.350, 2.400e-6
0.349, 2.368e-6
0.348, 2.338e-6
0.347, 2.307e-6
0.346, 2.277e-6
0.345, 2.246e-6
0.344, 2.216e-6
0.343, 2.185e-6
0.342, 2.154e-6
0.341, 2.125e-6
0.340, 2.095e-6
0.339, 2.064e-6
0.338, 2.029e-6
0.337, 1.992e-6
0.336, 1.952e-6
0.335, 1.914e-6
0.334, 1.877e-6
0.333, 1.838e-6
0.332, 1.794e-6
0.331, 1.750e-6
0.330, 1.707e-6
0.329, 1.669e-6
0.328, 1.632e-6
0.327, 1.592e-6
0.326, 1.544e-6
0.325, 1.495e-6
0.324, 1.446e-6
0.323, 1.399e-6
0.322, 1.350e-6
0.321, 1.296e-6
0.320, 1.239e-6
0.319, 1.182e-6
0.318, 1.126e-6
0.317, 1.070e-6
0.316, 1.015e-6
0.315, 9.560e-7
0.314, 8.960e-7
0.313, 8.304e-7
0.312, 7.612e-7
0.311, 6.898e-7
0.310, 6.240e-7
0.309, 5.587e-7
0.308, 4.933e-7
0.307, 4.216e-7
0.306, 3.462e-7
0.305, 2.676e-7
0.304, 1.922e-7
0.303, 1.155e-7
0.302, 3.696e-8
0.301, -4.753e-8
0.300, -1.363e-7
0.299, -2.285e-7
0.298, -3.201e-7
0.297, -4.119e-7
0.296, -5.031e-7
0.295, -5.977e-7
0.294, -6.966e-7
0.293, -8.015e-7
0.292, -9.082e-7
0.291, -1.016e-6
0.290, -1.121e-6
0.289, -1.229e-6
0.288, -1.339e-6
0.287, -1.456e-6
0.286, -1.579e-6
0.285, -1.706e-6
0.284, -1.834e-6
0.283, -1.967e-6
0.282, -2.104e-6
0.281, -2.245e-6
0.280, -2.387e-6
0.279, -2.527e-6
0.278, -2.670e-6
0.277, -2.817e-6
0.276, -2.971e-6
0.275, -3.127e-6
0.274, -3.283e-6
0.273, -3.440e-6
0.272, -3.603e-6
0.271, -3.775e-6
0.270, -3.954e-6
0.269, -4.138e-6
0.268, -4.326e-6
0.267, -4.521e-6
0.266, -4.722e-6
0.265, -4.924e-6
0.264, -5.124e-6
0.263, -5.325e-6
0.262, -5.528e-6
0.261, -5.740e-6
0.260, -5.963e-6
0.259, -6.195e-6
0.258, -6.435e-6
0.257, -6.680e-6
0.256, -6.929e-6
0.255, -7.178e-6
0.254, -7.427e-6
0.253, -7.681e-6
0.252, -7.943e-6
0.251, -8.214e-6
0.250, -8.491e-6
0.249, -8.770e-6
0.248, -9.055e-6
0.247, -9.349e-6
0.246, -9.652e-6
0.245, -9.965e-6
0.244, -1.028e-5
0.243, -1.060e-5
0.242, -1.093e-5
0.241, -1.126e-5
0.240, -1.160e-5
0.239, -1.194e-5
0.238, -1.230e-5
0.237, -1.266e-5
0.236, -1.303e-5
0.235, -1.340e-5
0.234, -1.377e-5
0.233, -1.416e-5
0.232, -1.455e-5
0.231, -1.496e-5
0.230, -1.539e-5
0.229, -1.581e-5
0.228, -1.624e-5
0.227, -1.666e-5
0.226, -1.710e-5
0.225, -1.755e-5
0.224, -1.801e-5
0.223, -1.848e-5
0.222, -1.895e-5
0.221, -1.942e-5
0.220, -1.991e-5
0.219, -2.041e-5
0.218, -2.090e-5
0.217, -2.141e-5
0.216, -2.192e-5
0.215, -2.245e-5
0.214, -2.298e-5
0.213, -2.351e-5
0.212, -2.406e-5
0.211, -2.461e-5
0.210, -2.518e-5
0.209, -2.575e-5
0.208, -2.633e-5
0.207, -2.692e-5
0.206, -2.751e-5
0.205, -2.810e-5
0.204, -2.870e-5
0.203, -2.930e-5
0.202, -2.993e-5
0.201, -3.056e-5
0.200, -3.119e-5
0.199, -3.184e-5
0.198, -3.248e-5
0.197, -3.314e-5
0.196, -3.380e-5
0.195, -3.447e-5
0.194, -3.514e-5
0.193, -3.582e-5
0.192, -3.651e-5
0.191, -3.721e-5
0.190, -3.791e-5
0.189, -3.862e-5
0.188, -3.934e-5
0.187, -4.005e-5
0.186, -4.077e-5
0.185, -4.150e-5
0.184, -4.222e-5
0.183, -4.295e-5
0.182, -4.369e-5
0.181, -4.444e-5
0.180, -4.520e-5
0.179, -4.595e-5
0.178, -4.671e-5
0.177, -4.748e-5
0.176, -4.824e-5
0.175, -4.901e-5
0.174, -4.977e-5
0.173, -5.053e-5
0.172, -5.130e-5
0.171, -5.207e-5
0.170, -5.284e-5
0.169, -5.361e-5
0.168, -5.439e-5
0.167, -5.516e-5
0.166, -5.594e-5
0.165, -5.672e-5
0.164, -5.750e-5
0.163, -5.828e-5
0.162, -5.905e-5
0.161, -5.983e-5
0.160, -6.061e-5
0.159, -6.138e-5
0.158, -6.214e-5
0.157, -6.290e-5
0.156, -6.366e-5
0.155, -6.444e-5
0.154, -6.521e-5
0.153, -6.598e-5
0.152, -6.674e-5
0.151, -6.749e-5
0.150, -6.824e-5
0.149, -6.898e-5
0.148, -6.971e-5
0.147, -7.044e-5
0.146, -7.116e-5
0.145, -7.188e-5
0.144, -7.260e-5
0.143, -7.330e-5
0.142, -7.400e-5
0.141, -7.471e-5
0.140, -7.541e-5
0.139, -7.610e-5
0.138, -7.678e-5
0.137, -7.745e-5
0.136, -7.811e-5
0.135, -7.876e-5
0.134, -7.940e-5
0.133, -8.004e-5
0.132, -8.068e-5
0.131, -8.131e-5
0.130, -8.194e-5
0.129, -8.256e-5
0.128, -8.317e-5
0.127, -8.377e-5
0.126, -8.436e-5
0.125, -8.494e-5
0.124, -8.550e-5
0.123, -8.605e-5
0.122, -8.659e-5
0.121, -8.713e-5
0.120, -8.765e-5
0.119, -8.817e-5
0.118, -8.867e-5
0.117, -8.917e-5
0.116, -8.966e-5
0.115, -9.015e-5
0.114, -9.063e-5
0.113, -9.108e-5
0.112, -9.152e-5
0.111, -9.195e-5
0.110, -9.237e-5
0.109, -9.278e-5
0.108, -9.319e-5
0.107, -9.358e-5
0.106, -9.397e-5
0.105, -9.434e-5
0.104, -9.470e-5
0.103, -9.506e-5
0.102, -9.540e-5
0.101, -9.574e-5
0.100, -9.607e-5
0.099, -9.639e-5
0.098, -9.669e-5
0.097, -9.698e-5
0.096, -9.725e-5
0.095, -9.753e-5
0.094, -9.779e-5
0.093, -9.805e-5
0.092, -9.829e-5
0.091, -9.852e-5
0.090, -9.875e-5
0.089, -9.897e-5
0.088, -9.918e-5
0.087, -9.937e-5
0.086, -9.956e-5
0.085, -9.973e-5
0.084, -9.990e-5
0.083, -1.001e-4
0.082, -1.002e-4
0.081, -1.003e-4
0.080, -1.005e-4
0.079, -1.006e-4
0.078, -1.007e-4
0.077, -1.009e-4
0.076, -1.010e-4
0.075, -1.011e-4
0.074, -1.011e-4
0.073, -1.012e-4
0.072, -1.012e-4
0.071, -1.013e-4
0.070, -1.013e-4
0.069, -1.014e-4
0.068, -1.014e-4
0.067, -1.014e-4
0.066, -1.015e-4
0.065, -1.015e-4
0.064, -1.015e-4
0.063, -1.015e-4
0.062, -1.015e-4
0.061, -1.015e-4
0.060, -1.014e-4
0.059, -1.014e-4
0.058, -1.014e-4
0.057, -1.013e-4
0.056, -1.013e-4
0.055, -1.012e-4
0.054, -1.012e-4
0.053, -1.011e-4
0.052, -1.011e-4
0.051, -1.010e-4
0.050, -1.009e-4
0.049, -1.008e-4
0.048, -1.007e-4
0.047, -1.006e-4
0.046, -1.005e-4
0.045, -1.004e-4
0.044, -1.003e-4
0.043, -1.002e-4
0.042, -1.001e-4
0.041, -9.994e-5
0.040, -9.982e-5
0.039, -9.969e-5
0.038, -9.955e-5
0.037, -9.941e-5
0.036, -9.926e-5
0.035, -9.911e-5
0.034, -9.896e-5
0.033, -9.881e-5
0.032, -9.866e-5
0.031, -9.850e-5
0.030, -9.833e-5
0.029, -9.816e-5
0.028, -9.798e-5
0.027, -9.780e-5
0.026, -9.763e-5
0.025, -9.746e-5
0.024, -9.729e-5
0.023, -9.711e-5
0.022, -9.692e-5
0.021, -9.672e-5
0.020, -9.652e-5
0.019, -9.632e-5
0.018, -9.612e-5
0.017, -9.592e-5
0.016, -9.572e-5
0.015, -9.552e-5
0.014, -9.532e-5
0.013, -9.512e-5
0.012, -9.491e-5
0.011, -9.471e-5
0.010, -9.450e-5
0.009, -9.428e-5
0.008, -9.406e-5
0.007, -9.384e-5
0.006, -9.362e-5
0.005, -9.340e-5
0.004, -9.319e-5
0.003, -9.297e-5
0.002, -9.275e-5
0.001, -9.254e-5
0.000, -9.232e-5
-0.001, -9.211e-5
-0.002, -9.188e-5
-0.003, -9.166e-5
-0.004, -9.143e-5
-0.005, -9.121e-5
-0.006, -9.098e-5
-0.007, -9.075e-5
-0.008, -9.051e-5
-0.009, -9.029e-5
-0.010, -9.006e-5
-0.011, -8.983e-5
-0.012, -8.960e-5
-0.013, -8.938e-5
-0.014, -8.915e-5
-0.015, -8.892e-5
-0.016, -8.868e-5
-0.017, -8.844e-5
-0.018, -8.821e-5
-0.019, -8.799e-5
-0.020, -8.776e-5
-0.021, -8.753e-5
-0.022, -8.730e-5
-0.023, -8.707e-5
-0.024, -8.684e-5
-0.025, -8.662e-5
-0.026, -8.640e-5
-0.027, -8.617e-5
-0.028, -8.594e-5
-0.029, -8.571e-5
-0.030, -8.548e-5
-0.031, -8.526e-5
-0.032, -8.503e-5
-0.033, -8.480e-5
-0.034, -8.457e-5
-0.035, -8.434e-5
-0.036, -8.411e-5
-0.037, -8.389e-5
-0.038, -8.367e-5
-0.039, -8.345e-5
-0.040, -8.323e-5
-0.041, -8.301e-5
-0.042, -8.279e-5
-0.043, -8.256e-5
-0.044, -8.234e-5
-0.045, -8.212e-5
-0.046, -8.191e-5
-0.047, -8.169e-5
-0.048, -8.146e-5
-0.049, -8.124e-5
-0.050, -8.102e-5
-0.051, -8.081e-5
-0.052, -8.060e-5
-0.053, -8.038e-5
-0.054, -8.017e-5
-0.055, -7.996e-5
-0.056, -7.975e-5
-0.057, -7.953e-5
-0.058, -7.932e-5
-0.059, -7.911e-5
-0.060, -7.890e-5
-0.061, -7.869e-5
-0.062, -7.848e-5
-0.063, -7.828e-5
-0.064, -7.808e-5
-0.065, -7.788e-5
-0.066, -7.768e-5
-0.067, -7.748e-5
-0.068, -7.728e-5
-0.069, -7.708e-5
-0.070, -7.688e-5
-0.071, -7.667e-5
-0.072, -7.648e-5
-0.073, -7.628e-5
-0.074, -7.608e-5
-0.075, -7.589e-5
-0.076, -7.570e-5
-0.077, -7.550e-5
-0.078, -7.531e-5
-0.079, -7.512e-5
-0.080, -7.493e-5
-0.081, -7.475e-5
-0.082, -7.456e-5
-0.083, -7.437e-5
-0.084, -7.418e-5
-0.085, -7.400e-5
-0.086, -7.381e-5
-0.087, -7.363e-5
-0.088, -7.345e-5
-0.089, -7.326e-5
-0.090, -7.308e-5
-0.091, -7.290e-5
-0.092, -7.272e-5
-0.093, -7.254e-5
-0.094, -7.236e-5
-0.095, -7.218e-5
-0.096, -7.201e-5
-0.097, -7.184e-5
-0.098, -7.166e-5
-0.099, -7.149e-5
-0.100, -7.132e-5
-0.101, -7.115e-5
-0.102, -7.098e-5
-0.103, -7.082e-5
-0.104, -7.065e-5
-0.105, -7.048e-5
-0.106, -7.031e-5
-0.107, -7.014e-5
-0.108, -6.998e-5
-0.109, -6.982e-5
-0.110, -6.966e-5
-0.111, -6.950e-5
-0.112, -6.933e-5
-0.113, -6.917e-5
-0.114, -6.901e-5
-0.115, -6.885e-5
-0.116, -6.870e-5
-0.117, -6.854e-5
-0.118, -6.838e-5
-0.119, -6.822e-5
-0.120, -6.807e-5
-0.121, -6.791e-5
-0.122, -6.776e-5
-0.123, -6.761e-5
-0.124, -6.746e-5
-0.125, -6.731e-5
-0.126, -6.716e-5
-0.127, -6.701e-5
-0.128, -6.687e-5
-0.129, -6.672e-5
-0.130, -6.657e-5
-0.131, -6.642e-5
-0.132, -6.627e-5
-0.133, -6.613e-5
-0.134, -6.600e-5
-0.135, -6.587e-5
-0.136, -6.572e-5
-0.137, -6.557e-5
-0.138, -6.542e-5
-0.139, -6.528e-5
-0.140, -6.514e-5
-0.141, -6.501e-5
-0.142, -6.487e-5
-0.143, -6.473e-5
-0.144, -6.460e-5
-0.145, -6.446e-5
-0.146, -6.433e-5
-0.147, -6.420e-5
-0.148, -6.406e-5
-0.149, -6.393e-5
-0.150, -6.380e-5
-0.151, -6.366e-5
-0.152, -6.354e-5
-0.153, -6.341e-5
-0.154, -6.328e-5
-0.155, -6.316e-5
-0.156, -6.303e-5
-0.157, -6.290e-5
-0.158, -6.278e-5
-0.159, -6.265e-5
-0.160, -6.252e-5
-0.161, -6.240e-5
-0.162, -6.228e-5
-0.163, -6.216e-5
-0.164, -6.204e-5
-0.165, -6.193e-5
-0.166, -6.180e-5
-0.167, -6.168e-5
-0.168, -6.156e-5
-0.169, -6.145e-5
-0.170, -6.133e-5
-0.171, -6.121e-5
-0.172, -6.109e-5
-0.173, -6.098e-5
-0.174, -6.086e-5
-0.175, -6.075e-5
-0.176, -6.063e-5
-0.177, -6.051e-5
-0.178, -6.039e-5
-0.179, -6.028e-5
-0.180, -6.018e-5
-0.181, -6.008e-5
-0.182, -5.997e-5
-0.183, -5.987e-5
-0.184, -5.975e-5
-0.185, -5.964e-5
-0.186, -5.954e-5
-0.187, -5.943e-5
-0.188, -5.932e-5
-0.189, -5.922e-5
-0.190, -5.911e-5
-0.191, -5.901e-5
-0.192, -5.890e-5
-0.193, -5.879e-5
-0.194, -5.869e-5
-0.195, -5.859e-5
-0.196, -5.849e-5
-0.197, -5.839e-5
-0.198, -5.828e-5
-0.199, -5.818e-5
-0.200, -5.781e-5
-0.199, -5.742e-5
-0.198, -5.708e-5
-0.197, -5.679e-5
-0.196, -5.655e-5
-0.195, -5.634e-5
-0.194, -5.614e-5
-0.193, -5.595e-5
-0.192, -5.577e-5
-0.191, -5.559e-5
-0.190, -5.542e-5
-0.189, -5.525e-5
-0.188, -5.509e-5
-0.187, -5.492e-5
-0.186, -5.476e-5
-0.185, -5.460e-5
-0.184, -5.445e-5
-0.183, -5.430e-5
-0.182, -5.416e-5
-0.181, -5.402e-5
-0.180, -5.387e-5
-0.179, -5.373e-5
-0.178, -5.359e-5
-0.177, -5.346e-5
-0.176, -5.332e-5
-0.175, -5.319e-5
-0.174, -5.306e-5
-0.173, -5.292e-5
-0.172, -5.279e-5
-0.171, -5.266e-5
-0.170, -5.253e-5
-0.169, -5.241e-5
-0.168, -5.228e-5
-0.167, -5.216e-5
-0.166, -5.204e-5
-0.165, -5.192e-5
-0.164, -5.180e-5
-0.163, -5.167e-5
-0.162, -5.155e-5
-0.161, -5.143e-5
-0.160, -5.131e-5
-0.159, -5.119e-5
-0.158, -5.107e-5
-0.157, -5.096e-5
-0.156, -5.084e-5
-0.155, -5.072e-5
-0.154, -5.061e-5
-0.153, -5.049e-5
-0.152, -5.038e-5
-0.151, -5.027e-5
-0.150, -5.017e-5
-0.149, -5.006e-5
-0.148, -4.995e-5
-0.147, -4.984e-5
-0.146, -4.973e-5
-0.145, -4.962e-5
-0.144, -4.951e-5
-0.143, -4.940e-5
-0.142, -4.929e-5
-0.141, -4.918e-5
-0.140, -4.908e-5
-0.139, -4.898e-5
-0.138, -4.887e-5
-0.137, -4.877e-5
-0.136, -4.866e-5
-0.135, -4.855e-5
-0.134, -4.845e-5
-0.133, -4.834e-5
-0.132, -4.825e-5
-0.131, -4.815e-5
-0.130, -4.804e-5
-0.129, -4.794e-5
-0.128, -4.783e-5
-0.127, -4.773e-5
-0.126, -4.763e-5
-0.125, -4.753e-5
-0.124, -4.743e-5
-0.123, -4.733e-5
-0.122, -4.724e-5
-0.121, -4.714e-5
-0.120, -4.704e-5
-0.119, -4.694e-5
-0.118, -4.683e-5
-0.117, -4.673e-5
-0.116, -4.663e-5
-0.115, -4.653e-5
-0.114, -4.642e-5
-0.113, -4.633e-5
-0.112, -4.624e-5
-0.111, -4.615e-5
-0.110, -4.606e-5
-0.109, -4.596e-5
-0.108, -4.586e-5
-0.107, -4.576e-5
-0.106, -4.566e-5
-0.105, -4.557e-5
-0.104, -4.547e-5
-0.103, -4.538e-5
-0.102, -4.528e-5
-0.101, -4.518e-5
-0.100, -4.508e-5
-0.099, -4.498e-5
-0.098, -4.489e-5
-0.097, -4.479e-5
-0.096, -4.470e-5
-0.095, -4.461e-5
-0.094, -4.452e-5
-0.093, -4.443e-5
-0.092, -4.433e-5
-0.091, -4.424e-5
-0.090, -4.414e-5
-0.089, -4.405e-5
-0.088, -4.396e-5
-0.087, -4.387e-5
-0.086, -4.377e-5
-0.085, -4.367e-5
-0.084, -4.357e-5
-0.083, -4.347e-5
-0.082, -4.338e-5
-0.081, -4.329e-5
-0.080, -4.320e-5
-0.079, -4.310e-5
-0.078, -4.300e-5
-0.077, -4.290e-5
-0.076, -4.281e-5
-0.075, -4.271e-5
-0.074, -4.262e-5
-0.073, -4.253e-5
-0.072, -4.243e-5
-0.071, -4.234e-5
-0.070, -4.225e-5
-0.069, -4.216e-5
-0.068, -4.207e-5
-0.067, -4.197e-5
-0.066, -4.187e-5
-0.065, -4.178e-5
-0.064, -4.168e-5
-0.063, -4.159e-5
-0.062, -4.149e-5
-0.061, -4.140e-5
-0.060, -4.131e-5
-0.059, -4.122e-5
-0.058, -4.112e-5
-0.057, -4.102e-5
-0.056, -4.093e-5
-0.055, -4.083e-5
-0.054, -4.073e-5
-0.053, -4.064e-5
-0.052, -4.055e-5
-0.051, -4.045e-5
-0.050, -4.036e-5
-0.049, -4.026e-5
-0.048, -4.016e-5
-0.047, -4.006e-5
-0.046, -3.997e-5
-0.045, -3.988e-5
-0.044, -3.978e-5
-0.043, -3.968e-5
-0.042, -3.958e-5
-0.041, -3.948e-5
-0.040, -3.939e-5
-0.039, -3.929e-5
-0.038, -3.919e-5
-0.037, -3.909e-5
-0.036, -3.899e-5
-0.035, -3.889e-5
-0.034, -3.879e-5
-0.033, -3.869e-5
-0.032, -3.859e-5
-0.031, -3.850e-5
-0.030, -3.841e-5
-0.029, -3.831e-5
-0.028, -3.821e-5
-0.027, -3.811e-5
-0.026, -3.800e-5
-0.025, -3.790e-5
-0.024, -3.779e-5
-0.023, -3.769e-5
-0.022, -3.759e-5
-0.021, -3.749e-5
-0.020, -3.739e-5
-0.019, -3.728e-5
-0.018, -3.718e-5
-0.017, -3.708e-5
-0.016, -3.698e-5
-0.015, -3.688e-5
-0.014, -3.677e-5
-0.013, -3.666e-5
-0.012, -3.655e-5
-0.011, -3.644e-5
-0.010, -3.634e-5
-0.009, -3.623e-5
-0.008, -3.613e-5
-0.007, -3.602e-5
-0.006, -3.592e-5
-0.005, -3.581e-5
-0.004, -3.570e-5
-0.003, -3.559e-5
-0.002, -3.548e-5
-0.001, -3.537e-5
-0.000, -3.526e-5
0.001, -3.514e-5
0.002, -3.503e-5
0.003, -3.491e-5
0.004, -3.480e-5
0.005, -3.469e-5
0.006, -3.458e-5
0.007, -3.447e-5
0.008, -3.435e-5
0.009, -3.424e-5
0.010, -3.412e-5
0.011, -3.400e-5
0.012, -3.388e-5
0.013, -3.377e-5
0.014, -3.365e-5
0.015, -3.354e-5
0.016, -3.342e-5
0.017, -3.330e-5
0.018, -3.317e-5
0.019, -3.305e-5
0.020, -3.293e-5
0.021, -3.281e-5
0.022, -3.269e-5
0.023, -3.257e-5
0.024, -3.244e-5
0.025, -3.232e-5
0.026, -3.219e-5
0.027, -3.206e-5
0.028, -3.194e-5
0.029, -3.181e-5
0.030, -3.168e-5
0.031, -3.155e-5
0.032, -3.142e-5
0.033, -3.129e-5
0.034, -3.115e-5
0.035, -3.102e-5
0.036, -3.089e-5
0.037, -3.076e-5
0.038, -3.062e-5
0.039, -3.048e-5
0.040, -3.035e-5
0.041, -3.020e-5
0.042, -3.006e-5
0.043, -2.992e-5
0.044, -2.978e-5
0.045, -2.964e-5
0.046, -2.950e-5
0.047, -2.936e-5
0.048, -2.921e-5
0.049, -2.906e-5
0.050, -2.890e-5
0.051, -2.875e-5
0.052, -2.861e-5
0.053, -2.846e-5
0.054, -2.831e-5
0.055, -2.816e-5
0.056, -2.800e-5
0.057, -2.784e-5
0.058, -2.768e-5
0.059, -2.753e-5
0.060, -2.737e-5
0.061, -2.721e-5
0.062, -2.704e-5
0.063, -2.687e-5
0.064, -2.671e-5
0.065, -2.655e-5
0.066, -2.638e-5
0.067, -2.620e-5
0.068, -2.603e-5
0.069, -2.585e-5
0.070, -2.567e-5
0.071, -2.550e-5
0.072, -2.532e-5
0.073, -2.514e-5
0.074, -2.496e-5
0.075, -2.478e-5
0.076, -2.459e-5
0.077, -2.440e-5
0.078, -2.421e-5
0.079, -2.402e-5
0.080, -2.382e-5
0.081, -2.363e-5
0.082, -2.343e-5
0.083, -2.323e-5
0.084, -2.304e-5
0.085, -2.284e-5
0.086, -2.263e-5
0.087, -2.242e-5
0.088, -2.220e-5
0.089, -2.199e-5
0.090, -2.177e-5
0.091, -2.156e-5
0.092, -2.133e-5
0.093, -2.111e-5
0.094, -2.088e-5
0.095, -2.066e-5
0.096, -2.043e-5
0.097, -2.019e-5
0.098, -1.995e-5
0.099, -1.970e-5
0.100, -1.946e-5
0.101, -1.921e-5
0.102, -1.896e-5
0.103, -1.871e-5
0.104, -1.846e-5
0.105, -1.821e-5
0.106, -1.795e-5
0.107, -1.769e-5
0.108, -1.742e-5
0.109, -1.716e-5
0.110, -1.689e-5
0.111, -1.661e-5
0.112, -1.633e-5
0.113, -1.604e-5
0.114, -1.575e-5
0.115, -1.546e-5
0.116, -1.517e-5
0.117, -1.486e-5
0.118, -1.455e-5
0.119, -1.424e-5
0.120, -1.393e-5
0.121, -1.362e-5
0.122, -1.331e-5
0.123, -1.300e-5
0.124, -1.267e-5
0.125, -1.235e-5
0.126, -1.201e-5
0.127, -1.167e-5
0.128, -1.133e-5
0.129, -1.098e-5
0.130, -1.063e-5
0.131, -1.028e-5
0.132, -9.918e-6
0.133, -9.554e-6
0.134, -9.189e-6
0.135, -8.822e-6
0.136, -8.451e-6
0.137, -8.074e-6
0.138, -7.689e-6
0.139, -7.299e-6
0.140, -6.903e-6
0.141, -6.504e-6
0.142, -6.097e-6
0.143, -5.687e-6
0.144, -5.276e-6
0.145, -4.864e-6
0.146, -4.447e-6
0.147, -4.024e-6
0.148, -3.593e-6
0.149, -3.157e-6
0.150, -2.716e-6
0.151, -2.272e-6
0.152, -1.819e-6
0.153, -1.360e-6
0.154, -8.961e-7
0.155, -4.260e-7
0.156, 4.666e-8
0.157, 5.228e-7
0.158, 1.004e-6
0.159, 1.486e-6
0.160, 1.971e-6
0.161, 2.462e-6
0.162, 2.958e-6
0.163, 3.457e-6
0.164, 3.961e-6
0.165, 4.467e-6
0.166, 4.981e-6
0.167, 5.504e-6
0.168, 6.036e-6
0.169, 6.567e-6
0.170, 7.100e-6
0.171, 7.636e-6
0.172, 8.176e-6
0.173, 8.722e-6
0.174, 9.274e-6
0.175, 9.827e-6
0.176, 1.039e-5
0.177, 1.096e-5
0.178, 1.153e-5
0.179, 1.210e-5
0.180, 1.268e-5
0.181, 1.326e-5
0.182, 1.384e-5
0.183, 1.443e-5
0.184, 1.501e-5
0.185, 1.559e-5
0.186, 1.618e-5
0.187, 1.677e-5
0.188, 1.736e-5
0.189, 1.797e-5
0.190, 1.857e-5
0.191, 1.918e-5
0.192, 1.979e-5
0.193, 2.041e-5
0.194, 2.103e-5
0.195, 2.164e-5
0.196, 2.226e-5
0.197, 2.287e-5
0.198, 2.349e-5
0.199, 2.410e-5
0.200, 2.471e-5
0.201, 2.534e-5
0.202, 2.597e-5
0.203, 2.659e-5
0.204, 2.721e-5
0.205, 2.782e-5
0.206, 2.843e-5
0.207, 2.906e-5
0.208, 2.968e-5
0.209, 3.031e-5
0.210, 3.094e-5
0.211, 3.156e-5
0.212, 3.218e-5
0.213, 3.280e-5
0.214, 3.342e-5
0.215, 3.404e-5
0.216, 3.466e-5
0.217, 3.528e-5
0.218, 3.590e-5
0.219, 3.652e-5
0.220, 3.713e-5
0.221, 3.774e-5
0.222, 3.834e-5
0.223, 3.894e-5
0.224, 3.954e-5
0.225, 4.012e-5
0.226, 4.071e-5
0.227, 4.130e-5
0.228, 4.189e-5
0.229, 4.248e-5
0.230, 4.307e-5
0.231, 4.365e-5
0.232, 4.424e-5
0.233, 4.480e-5
0.234, 4.536e-5
0.235, 4.592e-5
0.236, 4.647e-5
0.237, 4.701e-5
0.238, 4.755e-5
0.239, 4.809e-5
0.240, 4.862e-5
0.241, 4.915e-5
0.242, 4.968e-5
0.243, 5.020e-5
0.244, 5.070e-5
0.245, 5.120e-5
0.246, 5.169e-5
0.247, 5.218e-5
0.248, 5.266e-5
0.249, 5.314e-5
0.250, 5.360e-5
0.251, 5.406e-5
0.252, 5.452e-5
0.253, 5.496e-5
0.254, 5.541e-5
0.255, 5.585e-5
0.256, 5.628e-5
0.257, 5.671e-5
0.258, 5.713e-5
0.259, 5.754e-5
0.260, 5.793e-5
0.261, 5.832e-5
0.262, 5.870e-5
0.263, 5.908e-5
0.264, 5.945e-5
0.265, 5.981e-5
0.266, 6.017e-5
0.267, 6.052e-5
0.268, 6.086e-5
0.269, 6.119e-5
0.270, 6.150e-5
0.271, 6.181e-5
0.272, 6.212e-5
0.273, 6.242e-5
0.274, 6.271e-5
0.275, 6.299e-5
0.276, 6.326e-5
0.277, 6.353e-5
0.278, 6.379e-5
0.279, 6.404e-5
0.280, 6.428e-5
0.281, 6.452e-5
0.282, 6.476e-5
0.283, 6.498e-5
0.284, 6.520e-5
0.285, 6.540e-5
0.286, 6.559e-5
0.287, 6.578e-5
0.288, 6.596e-5
0.289, 6.613e-5
0.290, 6.629e-5
0.291, 6.644e-5
0.292, 6.659e-5
0.293, 6.674e-5
0.294, 6.687e-5
0.295, 6.700e-5
0.296, 6.711e-5
0.297, 6.722e-5
0.298, 6.732e-5
0.299, 6.742e-5
0.300, 6.751e-5
0.301, 6.759e-5
0.302, 6.767e-5
0.303, 6.773e-5
0.304, 6.779e-5
0.305, 6.785e-5
0.306, 6.790e-5
0.307, 6.794e-5
0.308, 6.798e-5
0.309, 6.801e-5
0.310, 6.803e-5
0.311, 6.805e-5
0.312, 6.806e-5
0.313, 6.807e-5
0.314, 6.806e-5
0.315, 6.805e-5
0.316, 6.804e-5
0.317, 6.801e-5
0.318, 6.799e-5
0.319, 6.795e-5
0.320, 6.792e-5
0.321, 6.788e-5
0.322, 6.784e-5
0.323, 6.778e-5
0.324, 6.772e-5
0.325, 6.765e-5
0.326, 6.758e-5
0.327, 6.751e-5
0.328, 6.743e-5
0.329, 6.735e-5
0.330, 6.726e-5
0.331, 6.718e-5
0.332, 6.709e-5
0.333, 6.700e-5
0.334, 6.690e-5
0.335, 6.679e-5
0.336, 6.667e-5
0.337, 6.654e-5
0.338, 6.642e-5
0.339, 6.629e-5
0.340, 6.616e-5
0.341, 6.602e-5
0.342, 6.589e-5
0.343, 6.575e-5
0.344, 6.561e-5
0.345, 6.546e-5
0.346, 6.532e-5
0.347, 6.517e-5
0.348, 6.502e-5
0.349, 6.486e-5
0.350, 6.469e-5
0.351, 6.452e-5
0.352, 6.435e-5
0.353, 6.419e-5
0.354, 6.401e-5
0.355, 6.383e-5
0.356, 6.365e-5
0.357, 6.348e-5
0.358, 6.330e-5
0.359, 6.312e-5
0.360, 6.294e-5
0.361, 6.275e-5
0.362, 6.256e-5
0.363, 6.237e-5
0.364, 6.217e-5
0.365, 6.197e-5
0.366, 6.177e-5
0.367, 6.158e-5
0.368, 6.138e-5
0.369, 6.118e-5
0.370, 6.098e-5
0.371, 6.077e-5
0.372, 6.057e-5
0.373, 6.037e-5
0.374, 6.017e-5
0.375, 5.996e-5
0.376, 5.975e-5
0.377, 5.953e-5
0.378, 5.931e-5
0.379, 5.910e-5
0.380, 5.888e-5
0.381, 5.866e-5
0.382, 5.845e-5
0.383, 5.824e-5
0.384, 5.803e-5
0.385, 5.782e-5
0.386, 5.760e-5
0.387, 5.739e-5
0.388, 5.717e-5
0.389, 5.695e-5
0.390, 5.673e-5
0.391, 5.651e-5
0.392, 5.630e-5
0.393, 5.608e-5
0.394, 5.586e-5
0.395, 5.564e-5
0.396, 5.542e-5
0.397, 5.521e-5
0.398, 5.500e-5
0.399, 5.479e-5
0.400, 5.457e-5
0.401, 5.435e-5
0.402, 5.413e-5
0.403, 5.391e-5
0.404, 5.370e-5
0.405, 5.348e-5
0.406, 5.326e-5
0.407, 5.305e-5
0.408, 5.284e-5
0.409, 5.263e-5
0.410, 5.242e-5
0.411, 5.220e-5
0.412, 5.199e-5
0.413, 5.178e-5
0.414, 5.156e-5
0.415, 5.135e-5
0.416, 5.114e-5
0.417, 5.093e-5
0.418, 5.072e-5
0.419, 5.051e-5
0.420, 5.030e-5
0.421, 5.009e-5
0.422, 4.989e-5
0.423, 4.969e-5
0.424, 4.949e-5
0.425, 4.929e-5
0.426, 4.908e-5
0.427, 4.888e-5
0.428, 4.868e-5
0.429, 4.847e-5
0.430, 4.827e-5
0.431, 4.808e-5
0.432, 4.788e-5
0.433, 4.769e-5
0.434, 4.749e-5
0.435, 4.729e-5
0.436, 4.710e-5
0.437, 4.691e-5
0.438, 4.672e-5
0.439, 4.653e-5
0.440, 4.633e-5
0.441, 4.614e-5
0.442, 4.595e-5
0.443, 4.576e-5
0.444, 4.558e-5
0.445, 4.540e-5
0.446, 4.521e-5
0.447, 4.502e-5
0.448, 4.484e-5
0.449, 4.465e-5
0.450, 4.447e-5
0.451, 4.430e-5
0.452, 4.412e-5
0.453, 4.395e-5
0.454, 4.377e-5
0.455, 4.360e-5
0.456, 4.342e-5
0.457, 4.324e-5
0.458, 4.307e-5
0.459, 4.291e-5
0.460, 4.274e-5
0.461, 4.257e-5
0.462, 4.240e-5
0.463, 4.223e-5
0.464, 4.206e-5
0.465, 4.189e-5
0.466, 4.173e-5
0.467, 4.156e-5
0.468, 4.141e-5
0.469, 4.125e-5
0.470, 4.108e-5
0.471, 4.092e-5
0.472, 4.076e-5
0.473, 4.061e-5
0.474, 4.045e-5
0.475, 4.030e-5
0.476, 4.015e-5
0.477, 4.000e-5
0.478, 3.984e-5
0.479, 3.969e-5
0.480, 3.954e-5
0.481, 3.939e-5
0.482, 3.924e-5
0.483, 3.910e-5
0.484, 3.895e-5
0.485, 3.881e-5
0.486, 3.866e-5
0.487, 3.852e-5
0.488, 3.837e-5
0.489, 3.823e-5
0.490, 3.809e-5
0.491, 3.795e-5
0.492, 3.782e-5
0.493, 3.768e-5
0.494, 3.754e-5
0.495, 3.741e-5
0.496, 3.727e-5
0.497, 3.713e-5
0.498, 3.699e-5
0.499, 3.685e-5
