150 mV/s
Potential/V, Current/A
0.500, 1.292e-7
0.499, 1.082e-7
0.498, 9.152e-8
0.497, 7.901e-8
0.496, 7.221e-8
0.495, 6.803e-8
0.494, 6.443e-8
0.493, 6.009e-8
0.492, 5.554e-8
0.491, 5.108e-8
0.490, 4.739e-8
0.489, 4.399e-8
0.488, 4.064e-8
0.487, 3.775e-8
0.486, 3.505e-8
0.485, 3.242e-8
0.484, 3.034e-8
0.483, 2.852e-8
0.482, 2.657e-8
0.481, 2.493e-8
0.480, 2.352e-8
0.479, 2.169e-8
0.478, 2.009e-8
0.477, 1.847e-8
0.476, 1.658e-8
0.475, 1.494e-8
0.474, 1.338e-8
0.473, 1.169e-8
0.472, 1.051e-8
0.471, 9.447e-9
0.470, 8.296e-9
0.469, 7.345e-9
0.468, 6.231e-9
0.467, 4.950e-9
0.466, 3.947e-9
0.465, 2.890e-9
0.464, 1.610e-9
0.463, 2.267e-10
0.462, -1.309e-9
0.461, -2.852e-9
0.460, -3.935e-9
0.459, -4.792e-9
0.458, -5.766e-9
0.457, -6.809e-9
0.456, -7.804e-9
0.455, -8.947e-9
0.454, -9.926e-9
0.453, -1.093e-8
0.452, -1.228e-8
0.451, -1.348e-8
0.450, -1.459e-8
0.449, -1.587e-8
0.448, -1.680e-8
0.447, -1.774e-8
0.446, -1.900e-8
0.445, -1.981e-8
0.444, -2.077e-8
0.443, -2.198e-8
0.442, -2.284e-8
0.441, -2.392e-8
0.440, -2.537e-8
0.439, -2.646e-8
0.438, -2.787e-8
0.437, -2.960e-8
0.436, -3.099e-8
0.435, -3.220e-8
0.434, -3.344e-8
0.433, -3.395e-8
0.432, -3.454e-8
0.431, -3.552e-8
0.430, -3.636e-8
0.429, -3.746e-8
0.428, -3.920e-8
0.427, -4.041e-8
0.426, -4.184e-8
0.425, -4.355e-8
0.424, -4.472e-8
0.423, -4.592e-8
0.422, -4.736e-8
0.421, -4.841e-8
0.420, -4.967e-8
0.419, -5.102e-8
0.418, -5.192e-8
0.417, -5.272e-8
0.416, -5.386e-8
0.415, -5.515e-8
0.414, -5.680e-8
0.413, -5.902e-8
0.412, -6.127e-8
0.411, -6.326e-8
0.410, -6.520e-8
0.409, -6.627e-8
0.408, -6.700e-8
0.407, -6.824e-8
0.406, -6.949e-8
0.405, -7.093e-8
0.404, -7.283e-8
0.403, -7.429e-8
0.402, -7.593e-8
0.401, -7.789e-8
0.400, -7.931e-8
0.399, -8.075e-8
0.398, -8.249e-8
0.397, -8.399e-8
0.396, -8.592e-8
0.395, -8.797e-8
0.394, -8.931e-8
0.393, -9.057e-8
0.392, -9.207e-8
0.391, -9.342e-8
0.390, -9.532e-8
0.389, -9.739e-8
0.388, -9.896e-8
0.387, -1.003e-7
0.386, -1.020e-7
0.385, -1.037e-7
0.384, -1.056e-7
0.383, -1.075e-7
0.382, -1.090e-7
0.381, -1.103e-7
0.380, -1.119e-7
0.379, -1.135e-7
0.378, -1.153e-7
0.377, -1.175e-7
0.376, -1.197e-7
0.375, -1.220e-7
0.374, -1.246e-7
0.373, -1.270e-7
0.372, -1.294e-7
0.371, -1.325e-7
0.370, -1.357e-7
0.369, -1.392e-7
0.368, -1.430e-7
0.367, -1.466e-7
0.366, -1.504e-7
0.365, -1.547e-7
0.364, -1.591e-7
0.363, -1.637e-7
0.362, -1.689e-7
0.361, -1.743e-7
0.360, -1.802e-7
0.359, -1.864e-7
0.358, -1.923e-7
0.357, -1.978e-7
0.356, -2.032e-7
0.355, -2.082e-7
0.354, -2.135e-7
0.353, -2.190e-7
0.352, -2.242e-7
0.351, -2.295e-7
0.350, -2.352e-7
0.349, -2.411e-7
0.348, -2.480e-7
0.347, -2.563e-7
0.346, -2.652e-7
0.345, -2.750e-7
0.344, -2.857e-7
0.343, -2.966e-7
0.342, -3.076e-7
0.341, -3.187e-7
0.340, -3.287e-7
0.339, -3.373e-7
0.338, -3.449e-7
0.337, -3.513e-7
0.336, -3.575e-7
0.335, -3.652e-7
0.334, -3.743e-7
0.333, -3.851e-7
0.332, -3.977e-7
0.331, -4.113e-7
0.330, -4.257e-7
0.329, -4.409e-7
0.328, -4.556e-7
0.327, -4.699e-7
0.326, -4.844e-7
0.325, -4.996e-7
0.324, -5.167e-7
0.323, -5.356e-7
0.322, -5.546e-7
0.321, -5.728e-7
0.320, -5.899e-7
0.319, -6.068e-7
0.318, -6.251e-7
0.317, -6.455e-7
0.316, -6.670e-7
0.315, -6.887e-7
0.314, -7.106e-7
0.313, -7.335e-7
0.312, -7.584e-7
0.311, -7.853e-7
0.310, -8.124e-7
0.309, -8.392e-7
0.308, -8.661e-7
0.307, -8.932e-7
0.306, -9.213e-7
0.305, -9.509e-7
0.304, -9.808e-7
0.303, -1.011e-6
0.302, -1.043e-6
0.301, -1.074e-6
0.300, -1.105e-6
0.299, -1.140e-6
0.298, -1.177e-6
0.297, -1.218e-6
0.296, -1.261e-6
0.295, -1.303e-6
0.294, -1.342e-6
0.293, -1.382e-6
0.292, -1.424e-6
0.291, -1.469e-6
0.290, -1.517e-6
0.289, -1.567e-6
0.288, -1.617e-6
0.287, -1.671e-6
0.286, -1.727e-6
0.285, -1.782e-6
0.284, -1.836e-6
0.283, -1.892e-6
0.282, -1.950e-6
0.281, -2.013e-6
0.280, -2.079e-6
0.279, -2.147e-6
0.278, -2.216e-6
0.277, -2.284e-6
0.276, -2.353e-6
0.275, -2.425e-6
0.274, -2.499e-6
0.273, -2.576e-6
0.272, -2.657e-6
0.271, -2.739e-6
0.270, -2.821e-6
0.269, -2.909e-6
0.268, -3.000e-6
0.267, -3.094e-6
0.266, -3.188e-6
0.265, -3.282e-6
0.264, -3.375e-6
0.263, -3.473e-6
0.262, -3.576e-6
0.261, -3.683e-6
0.260, -3.794e-6
0.259, -3.906e-6
0.258, -4.021e-6
0.257, -4.141e-6
0.256, -4.263e-6
0.255, -4.388e-6
0.254, -4.515e-6
0.253, -4.645e-6
0.252, -4.778e-6
0.251, -4.912e-6
0.250, -5.049e-6
0.249, -5.188e-6
0.248, -5.331e-6
0.247, -5.478e-6
0.246, -5.629e-6
0.245, -5.785e-6
0.244, -5.944e-6
0.243, -6.107e-6
0.242, -6.274e-6
0.241, -6.443e-6
0.240, -6.614e-6
0.239, -6.789e-6
0.238, -6.966e-6
0.237, -7.143e-6
0.236, -7.323e-6
0.235, -7.506e-6
0.234, -7.696e-6
0.233, -7.893e-6
0.232, -8.095e-6
0.231, -8.301e-6
0.230, -8.510e-6
0.229, -8.720e-6
0.228, -8.931e-6
0.227, -9.145e-6
0.226, -9.362e-6
0.225, -9.582e-6
0.224, -9.806e-6
0.223, -1.003e-5
0.222, -1.026e-5
0.221, -1.050e-5
0.220, -1.073e-5
0.219, -1.097e-5
0.218, -1.121e-5
0.217, -1.146e-5
0.216, -1.170e-5
0.215, -1.195e-5
0.214, -1.220e-5
0.213, -1.245e-5
0.212, -1.271e-5
0.211, -1.296e-5
0.210, -1.322e-5
0.209, -1.348e-5
0.208, -1.374e-5
0.207, -1.401e-5
0.206, -1.427e-5
0.205, -1.454e-5
0.204, -1.480e-5
0.203, -1.507e-5
0.202, -1.534e-5
0.201, -1.561e-5
0.200, -1.589e-5
0.199, -1.616e-5
0.198, -1.643e-5
0.197, -1.670e-5
0.196, -1.698e-5
0.195, -1.725e-5
0.194, -1.753e-5
0.193, -1.780e-5
0.192, -1.807e-5
0.191, -1.834e-5
0.190, -1.861e-5
0.189, -1.888e-5
0.188, -1.915e-5
0.187, -1.942e-5
0.186, -1.968e-5
0.185, -1.994e-5
0.184, -2.020e-5
0.183, -2.046e-5
0.182, -2.071e-5
0.181, -2.097e-5
0.180, -2.122e-5
0.179, -2.148e-5
0.178, -2.172e-5
0.177, -2.197e-5
0.176, -2.221e-5
0.175, -2.244e-5
0.174, -2.267e-5
0.173, -2.289e-5
0.172, -2.311e-5
0.171, -2.333e-5
0.170, -2.354e-5
0.169, -2.375e-5
0.168, -2.396e-5
0.167, -2.417e-5
0.166, -2.437e-5
0.165, -2.456e-5
0.164, -2.475e-5
0.163, -2.493e-5
0.162, -2.511e-5
0.161, -2.528e-5
0.160, -2.545e-5
0.159, -2.561e-5
0.158, -2.577e-5
0.157, -2.593e-5
0.156, -2.608e-5
0.155, -2.623e-5
0.154, -2.637e-5
0.153, -2.651e-5
0.152, -2.664e-5
0.151, -2.676e-5
0.150, -2.687e-5
0.149, -2.697e-5
0.148, -2.708e-5
0.147, -2.718e-5
0.146, -2.728e-5
0.145, -2.737e-5
0.144, -2.745e-5
0.143, -2.753e-5
0.142, -2.761e-5
0.141, -2.768e-5
0.140, -2.775e-5
0.139, -2.781e-5
0.138, -2.786e-5
0.137, -2.791e-5
0.136, -2.796e-5
0.135, -2.800e-5
0.134, -2.804e-5
0.133, -2.807e-5
0.132, -2.809e-5
0.131, -2.812e-5
0.130, -2.814e-5
0.129, -2.816e-5
0.128, -2.818e-5
0.127, -2.819e-5
0.126, -2.819e-5
0.125, -2.819e-5
0.124, -2.818e-5
0.123, -2.817e-5
0.122, -2.815e-5
0.121, -2.813e-5
0.120, -2.811e-5
0.119, -2.809e-5
0.118, -2.806e-5
0.117, -2.804e-5
0.116, -2.801e-5
0.115, -2.797e-5
0.114, -2.793e-5
0.113, -2.789e-5
0.112, -2.785e-5
0.111, -2.780e-5
0.110, -2.776e-5
0.109, -2.771e-5
0.108, -2.766e-5
0.107, -2.760e-5
0.106, -2.755e-5
0.105, -2.749e-5
0.104, -2.742e-5
0.103, -2.736e-5
0.102, -2.730e-5
0.101, -2.724e-5
0.100, -2.717e-5
0.099, -2.710e-5
0.098, -2.702e-5
0.097, -2.695e-5
0.096, -2.688e-5
0.095, -2.681e-5
0.094, -2.674e-5
0.093, -2.667e-5
0.092, -2.659e-5
0.091, -2.651e-5
0.090, -2.643e-5
0.089, -2.635e-5
0.088, -2.627e-5
0.087, -2.619e-5
0.086, -2.611e-5
0.085, -2.602e-5
0.084, -2.594e-5
0.083, -2.586e-5
0.082, -2.577e-5
0.081, -2.569e-5
0.080, -2.560e-5
0.079, -2.552e-5
0.078, -2.543e-5
0.077, -2.535e-5
0.076, -2.527e-5
0.075, -2.518e-5
0.074, -2.509e-5
0.073, -2.500e-5
0.072, -2.492e-5
0.071, -2.483e-5
0.070, -2.475e-5
0.069, -2.466e-5
0.068, -2.457e-5
0.067, -2.449e-5
0.066, -2.440e-5
0.065, -2.432e-5
0.064, -2.423e-5
0.063, -2.415e-5
0.062, -2.406e-5
0.061, -2.397e-5
0.060, -2.389e-5
0.059, -2.380e-5
0.058, -2.372e-5
0.057, -2.363e-5
0.056, -2.355e-5
0.055, -2.346e-5
0.054, -2.338e-5
0.053, -2.330e-5
0.052, -2.322e-5
0.051, -2.313e-5
0.050, -2.305e-5
0.049, -2.297e-5
0.048, -2.290e-5
0.047, -2.282e-5
0.046, -2.274e-5
0.045, -2.266e-5
0.044, -2.258e-5
0.043, -2.250e-5
0.042, -2.242e-5
0.041, -2.234e-5
0.040, -2.227e-5
0.039, -2.219e-5
0.038, -2.211e-5
0.037, -2.204e-5
0.036, -2.196e-5
0.035, -2.189e-5
0.034, -2.181e-5
0.033, -2.174e-5
0.032, -2.166e-5
0.031, -2.159e-5
0.030, -2.151e-5
0.029, -2.144e-5
0.028, -2.137e-5
0.027, -2.130e-5
0.026, -2.123e-5
0.025, -2.116e-5
0.024, -2.109e-5
0.023, -2.102e-5
0.022, -2.095e-5
0.021, -2.088e-5
0.020, -2.082e-5
0.019, -2.075e-5
0.018, -2.068e-5
0.017, -2.061e-5
0.016, -2.055e-5
0.015, -2.048e-5
0.014, -2.042e-5
0.013, -2.036e-5
0.012, -2.029e-5
0.011, -2.022e-5
0.010, -2.016e-5
0.009, -2.009e-5
0.008, -2.003e-5
0.007, -1.997e-5
0.006, -1.991e-5
0.005, -1.985e-5
0.004, -1.979e-5
0.003, -1.973e-5
0.002, -1.967e-5
0.001, -1.961e-5
0.000, -1.955e-5
-0.001, -1.950e-5
-0.002, -1.944e-5
-0.003, -1.938e-5
-0.004, -1.932e-5
-0.005, -1.926e-5
-0.006, -1.921e-5
-0.007, -1.915e-5
-0.008, -1.909e-5
-0.009, -1.904e-5
-0.010, -1.899e-5
-0.011, -1.894e-5
-0.012, -1.889e-5
-0.013, -1.883e-5
-0.014, -1.877e-5
-0.015, -1.872e-5
-0.016, -1.866e-5
-0.017, -1.861e-5
-0.018, -1.856e-5
-0.019, -1.851e-5
-0.020, -1.846e-5
-0.021, -1.841e-5
-0.022, -1.836e-5
-0.023, -1.831e-5
-0.024, -1.826e-5
-0.025, -1.821e-5
-0.026, -1.817e-5
-0.027, -1.812e-5
-0.028, -1.807e-5
-0.029, -1.802e-5
-0.030, -1.798e-5
-0.031, -1.793e-5
-0.032, -1.789e-5
-0.033, -1.784e-5
-0.034, -1.779e-5
-0.035, -1.775e-5
-0.036, -1.771e-5
-0.037, -1.766e-5
-0.038, -1.761e-5
-0.039, -1.757e-5
-0.040, -1.752e-5
-0.041, -1.748e-5
-0.042, -1.744e-5
-0.043, -1.740e-5
-0.044, -1.735e-5
-0.045, -1.731e-5
-0.046, -1.727e-5
-0.047, -1.722e-5
-0.048, -1.718e-5
-0.049, -1.714e-5
-0.050, -1.710e-5
-0.051, -1.706e-5
-0.052, -1.702e-5
-0.053, -1.699e-5
-0.054, -1.695e-5
-0.055, -1.691e-5
-0.056, -1.687e-5
-0.057, -1.683e-5
-0.058, -1.679e-5
-0.059, -1.676e-5
-0.060, -1.672e-5
-0.061, -1.668e-5
-0.062, -1.664e-5
-0.063, -1.660e-5
-0.064, -1.656e-5
-0.065, -1.653e-5
-0.066, -1.650e-5
-0.067, -1.646e-5
-0.068, -1.642e-5
-0.069, -1.639e-5
-0.070, -1.635e-5
-0.071, -1.631e-5
-0.072, -1.627e-5
-0.073, -1.624e-5
-0.074, -1.621e-5
-0.075, -1.617e-5
-0.076, -1.614e-5
-0.077, -1.610e-5
-0.078, -1.607e-5
-0.079, -1.604e-5
-0.080, -1.601e-5
-0.081, -1.598e-5
-0.082, -1.595e-5
-0.083, -1.591e-5
-0.084, -1.587e-5
-0.085, -1.584e-5
-0.086, -1.581e-5
-0.087, -1.578e-5
-0.088, -1.575e-5
-0.089, -1.572e-5
-0.090, -1.568e-5
-0.091, -1.565e-5
-0.092, -1.562e-5
-0.093, -1.559e-5
-0.094, -1.556e-5
-0.095, -1.553e-5
-0.096, -1.551e-5
-0.097, -1.548e-5
-0.098, -1.545e-5
-0.099, -1.541e-5
-0.100, -1.538e-5
-0.101, -1.535e-5
-0.102, -1.533e-5
-0.103, -1.530e-5
-0.104, -1.527e-5
-0.105, -1.525e-5
-0.106, -1.522e-5
-0.107, -1.519e-5
-0.108, -1.515e-5
-0.109, -1.512e-5
-0.110, -1.510e-5
-0.111, -1.507e-5
-0.112, -1.505e-5
-0.113, -1.503e-5
-0.114, -1.501e-5
-0.115, -1.498e-5
-0.116, -1.495e-5
-0.117, -1.492e-5
-0.118, -1.490e-5
-0.119, -1.487e-5
-0.120, -1.484e-5
-0.121, -1.482e-5
-0.122, -1.479e-5
-0.123, -1.477e-5
-0.124, -1.475e-5
-0.125, -1.472e-5
-0.126, -1.469e-5
-0.127, -1.467e-5
-0.128, -1.464e-5
-0.129, -1.462e-5
-0.130, -1.459e-5
-0.131, -1.457e-5
-0.132, -1.455e-5
-0.133, -1.453e-5
-0.134, -1.451e-5
-0.135, -1.448e-5
-0.136, -1.446e-5
-0.137, -1.443e-5
-0.138, -1.441e-5
-0.139, -1.439e-5
-0.140, -1.436e-5
-0.141, -1.434e-5
-0.142, -1.432e-5
-0.143, -1.429e-5
-0.144, -1.427e-5
-0.145, -1.425e-5
-0.146, -1.422e-5
-0.147, -1.420e-5
-0.148, -1.418e-5
-0.149, -1.416e-5
-0.150, -1.414e-5
-0.151, -1.411e-5
-0.152, -1.409e-5
-0.153, -1.407e-5
-0.154, -1.406e-5
-0.155, -1.404e-5
-0.156, -1.402e-5
-0.157, -1.400e-5
-0.158, -1.398e-5
-0.159, -1.395e-5
-0.160, -1.393e-5
-0.161, -1.391e-5
-0.162, -1.389e-5
-0.163, -1.386e-5
-0.164, -1.384e-5
-0.165, -1.383e-5
-0.166, -1.381e-5
-0.167, -1.379e-5
-0.168, -1.377e-5
-0.169, -1.375e-5
-0.170, -1.373e-5
-0.171, -1.371e-5
-0.172, -1.369e-5
-0.173, -1.367e-5
-0.174, -1.366e-5
-0.175, -1.364e-5
-0.176, -1.362e-5
-0.177, -1.360e-5
-0.178, -1.358e-5
-0.179, -1.357e-5
-0.180, -1.355e-5
-0.181, -1.354e-5
-0.182, -1.352e-5
-0.183, -1.350e-5
-0.184, -1.347e-5
-0.185, -1.345e-5
-0.186, -1.344e-5
-0.187, -1.342e-5
-0.188, -1.340e-5
-0.189, -1.339e-5
-0.190, -1.337e-5
-0.191, -1.335e-5
-0.192, -1.333e-5
-0.193, -1.332e-5
-0.194, -1.330e-5
-0.195, -1.329e-5
-0.196, -1.327e-5
-0.197, -1.325e-5
-0.198, -1.323e-5
-0.199, -1.321e-5
-0.200, -1.301e-5
-0.199, -1.292e-5
-0.198, -1.284e-5
-0.197, -1.277e-5
-0.196, -1.272e-5
-0.195, -1.268e-5
-0.194, -1.265e-5
-0.193, -1.261e-5
-0.192, -1.258e-5
-0.191, -1.255e-5
-0.190, -1.251e-5
-0.189, -1.248e-5
-0.188, -1.244e-5
-0.187, -1.241e-5
-0.186, -1.238e-5
-0.185, -1.235e-5
-0.184, -1.233e-5
-0.183, -1.230e-5
-0.182, -1.227e-5
-0.181, -1.224e-5
-0.180, -1.221e-5
-0.179, -1.218e-5
-0.178, -1.216e-5
-0.177, -1.213e-5
-0.176, -1.211e-5
-0.175, -1.209e-5
-0.174, -1.207e-5
-0.173, -1.205e-5
-0.172, -1.202e-5
-0.171, -1.200e-5
-0.170, -1.197e-5
-0.169, -1.195e-5
-0.168, -1.192e-5
-0.167, -1.190e-5
-0.166, -1.187e-5
-0.165, -1.185e-5
-0.164, -1.183e-5
-0.163, -1.181e-5
-0.162, -1.179e-5
-0.161, -1.177e-5
-0.160, -1.174e-5
-0.159, -1.172e-5
-0.158, -1.170e-5
-0.157, -1.168e-5
-0.156, -1.166e-5
-0.155, -1.164e-5
-0.154, -1.162e-5
-0.153, -1.160e-5
-0.152, -1.159e-5
-0.151, -1.157e-5
-0.150, -1.154e-5
-0.149, -1.152e-5
-0.148, -1.150e-5
-0.147, -1.148e-5
-0.146, -1.146e-5
-0.145, -1.144e-5
-0.144, -1.142e-5
-0.143, -1.140e-5
-0.142, -1.138e-5
-0.141, -1.136e-5
-0.140, -1.135e-5
-0.139, -1.133e-5
-0.138, -1.131e-5
-0.137, -1.129e-5
-0.136, -1.127e-5
-0.135, -1.125e-5
-0.134, -1.123e-5
-0.133, -1.122e-5
-0.132, -1.120e-5
-0.131, -1.118e-5
-0.130, -1.116e-5
-0.129, -1.114e-5
-0.128, -1.113e-5
-0.127, -1.112e-5
-0.126, -1.111e-5
-0.125, -1.110e-5
-0.124, -1.108e-5
-0.123, -1.106e-5
-0.122, -1.104e-5
-0.121, -1.102e-5
-0.120, -1.100e-5
-0.119, -1.098e-5
-0.118, -1.096e-5
-0.117, -1.094e-5
-0.116, -1.093e-5
-0.115, -1.091e-5
-0.114, -1.089e-5
-0.113, -1.088e-5
-0.112, -1.086e-5
-0.111, -1.085e-5
-0.110, -1.083e-5
-0.109, -1.081e-5
-0.108, -1.079e-5
-0.107, -1.078e-5
-0.106, -1.076e-5
-0.105, -1.074e-5
-0.104, -1.072e-5
-0.103, -1.071e-5
-0.102, -1.069e-5
-0.101, -1.067e-5
-0.100, -1.066e-5
-0.099, -1.064e-5
-0.098, -1.063e-5
-0.097, -1.062e-5
-0.096, -1.061e-5
-0.095, -1.059e-5
-0.094, -1.058e-5
-0.093, -1.056e-5
-0.092, -1.054e-5
-0.091, -1.052e-5
-0.090, -1.050e-5
-0.089, -1.049e-5
-0.088, -1.048e-5
-0.087, -1.046e-5
-0.086, -1.044e-5
-0.085, -1.042e-5
-0.084, -1.041e-5
-0.083, -1.040e-5
-0.082, -1.038e-5
-0.081, -1.037e-5
-0.080, -1.035e-5
-0.079, -1.034e-5
-0.078, -1.032e-5
-0.077, -1.030e-5
-0.076, -1.028e-5
-0.075, -1.027e-5
-0.074, -1.025e-5
-0.073, -1.024e-5
-0.072, -1.022e-5
-0.071, -1.021e-5
-0.070, -1.019e-5
-0.069, -1.017e-5
-0.068, -1.016e-5
-0.067, -1.015e-5
-0.066, -1.014e-5
-0.065, -1.013e-5
-0.064, -1.011e-5
-0.063, -1.010e-5
-0.062, -1.008e-5
-0.061, -1.006e-5
-0.060, -1.004e-5
-0.059, -1.003e-5
-0.058, -1.001e-5
-0.057, -1.000e-5
-0.056, -9.984e-6
-0.055, -9.967e-6
-0.054, -9.950e-6
-0.053, -9.932e-6
-0.052, -9.916e-6
-0.051, -9.902e-6
-0.050, -9.890e-6
-0.049, -9.878e-6
-0.048, -9.864e-6
-0.047, -9.848e-6
-0.046, -9.831e-6
-0.045, -9.814e-6
-0.044, -9.798e-6
-0.043, -9.784e-6
-0.042, -9.770e-6
-0.041, -9.755e-6
-0.040, -9.740e-6
-0.039, -9.724e-6
-0.038, -9.708e-6
-0.037, -9.692e-6
-0.036, -9.677e-6
-0.035, -9.664e-6
-0.034, -9.653e-6
-0.033, -9.643e-6
-0.032, -9.632e-6
-0.031, -9.617e-6
-0.030, -9.599e-6
-0.029, -9.578e-6
-0.028, -9.558e-6
-0.027, -9.539e-6
-0.026, -9.523e-6
-0.025, -9.508e-6
-0.024, -9.492e-6
-0.023, -9.475e-6
-0.022, -9.458e-6
-0.021, -9.442e-6
-0.020, -9.427e-6
-0.019, -9.414e-6
-0.018, -9.401e-6
-0.017, -9.387e-6
-0.016, -9.371e-6
-0.015, -9.353e-6
-0.014, -9.334e-6
-0.013, -9.316e-6
-0.012, -9.299e-6
-0.011, -9.283e-6
-0.010, -9.269e-6
-0.009, -9.254e-6
-0.008, -9.237e-6
-0.007, -9.219e-6
-0.006, -9.200e-6
-0.005, -9.183e-6
-0.004, -9.170e-6
-0.003, -9.159e-6
-0.002, -9.148e-6
-0.001, -9.134e-6
-0.000, -9.117e-6
0.001, -9.096e-6
0.002, -9.075e-6
0.003, -9.056e-6
0.004, -9.039e-6
0.005, -9.023e-6
0.006, -9.006e-6
0.007, -8.988e-6
0.008, -8.969e-6
0.009, -8.951e-6
0.010, -8.934e-6
0.011, -8.919e-6
0.012, -8.904e-6
0.013, -8.887e-6
0.014, -8.867e-6
0.015, -8.847e-6
0.016, -8.827e-6
0.017, -8.808e-6
0.018, -8.790e-6
0.019, -8.772e-6
0.020, -8.752e-6
0.021, -8.731e-6
0.022, -8.710e-6
0.023, -8.691e-6
0.024, -8.675e-6
0.025, -8.659e-6
0.026, -8.642e-6
0.027, -8.622e-6
0.028, -8.599e-6
0.029, -8.575e-6
0.030, -8.554e-6
0.031, -8.532e-6
0.032, -8.511e-6
0.033, -8.488e-6
0.034, -8.466e-6
0.035, -8.446e-6
0.036, -8.427e-6
0.037, -8.407e-6
0.038, -8.385e-6
0.039, -8.361e-6
0.040, -8.335e-6
0.041, -8.309e-6
0.042, -8.285e-6
0.043, -8.260e-6
0.044, -8.237e-6
0.045, -8.216e-6
0.046, -8.196e-6
0.047, -8.176e-6
0.048, -8.154e-6
0.049, -8.127e-6
0.050, -8.099e-6
0.051, -8.071e-6
0.052, -8.043e-6
0.053, -8.016e-6
0.054, -7.989e-6
0.055, -7.962e-6
0.056, -7.935e-6
0.057, -7.907e-6
0.058, -7.879e-6
0.059, -7.850e-6
0.060, -7.819e-6
0.061, -7.789e-6
0.062, -7.759e-6
0.063, -7.730e-6
0.064, -7.702e-6
0.065, -7.674e-6
0.066, -7.643e-6
0.067, -7.609e-6
0.068, -7.572e-6
0.069, -7.536e-6
0.070, -7.501e-6
0.071, -7.468e-6
0.072, -7.436e-6
0.073, -7.402e-6
0.074, -7.367e-6
0.075, -7.329e-6
0.076, -7.291e-6
0.077, -7.255e-6
0.078, -7.221e-6
0.079, -7.187e-6
0.080, -7.150e-6
0.081, -7.108e-6
0.082, -7.063e-6
0.083, -7.018e-6
0.084, -6.974e-6
0.085, -6.931e-6
0.086, -6.886e-6
0.087, -6.839e-6
0.088, -6.792e-6
0.089, -6.745e-6
0.090, -6.699e-6
0.091, -6.651e-6
0.092, -6.601e-6
0.093, -6.551e-6
0.094, -6.499e-6
0.095, -6.445e-6
0.096, -6.390e-6
0.097, -6.333e-6
0.098, -6.277e-6
0.099, -6.221e-6
0.100, -6.163e-6
0.101, -6.102e-6
0.102, -6.038e-6
0.103, -5.973e-6
0.104, -5.907e-6
0.105, -5.843e-6
0.106, -5.778e-6
0.107, -5.712e-6
0.108, -5.644e-6
0.109, -5.571e-6
0.110, -5.496e-6
0.111, -5.421e-6
0.112, -5.347e-6
0.113, -5.272e-6
0.114, -5.195e-6
0.115, -5.115e-6
0.116, -5.032e-6
0.117, -4.948e-6
0.118, -4.862e-6
0.119, -4.776e-6
0.120, -4.687e-6
0.121, -4.594e-6
0.122, -4.500e-6
0.123, -4.405e-6
0.124, -4.309e-6
0.125, -4.211e-6
0.126, -4.109e-6
0.127, -4.003e-6
0.128, -3.894e-6
0.129, -3.782e-6
0.130, -3.669e-6
0.131, -3.559e-6
0.132, -3.448e-6
0.133, -3.337e-6
0.134, -3.222e-6
0.135, -3.102e-6
0.136, -2.976e-6
0.137, -2.847e-6
0.138, -2.717e-6
0.139, -2.583e-6
0.140, -2.447e-6
0.141, -2.308e-6
0.142, -2.167e-6
0.143, -2.024e-6
0.144, -1.880e-6
0.145, -1.733e-6
0.146, -1.583e-6
0.147, -1.431e-6
0.148, -1.277e-6
0.149, -1.119e-6
0.150, -9.591e-7
0.151, -7.937e-7
0.152, -6.231e-7
0.153, -4.501e-7
0.154, -2.741e-7
0.155, -9.562e-8
0.156, 8.353e-8
0.157, 2.652e-7
0.158, 4.491e-7
0.159, 6.344e-7
0.160, 8.241e-7
0.161, 1.018e-6
0.162, 1.214e-6
0.163, 1.415e-6
0.164, 1.619e-6
0.165, 1.826e-6
0.166, 2.036e-6
0.167, 2.247e-6
0.168, 2.458e-6
0.169, 2.672e-6
0.170, 2.888e-6
0.171, 3.107e-6
0.172, 3.330e-6
0.173, 3.554e-6
0.174, 3.780e-6
0.175, 4.009e-6
0.176, 4.240e-6
0.177, 4.475e-6
0.178, 4.714e-6
0.179, 4.957e-6
0.180, 5.201e-6
0.181, 5.447e-6
0.182, 5.693e-6
0.183, 5.938e-6
0.184, 6.185e-6
0.185, 6.432e-6
0.186, 6.680e-6
0.187, 6.931e-6
0.188, 7.184e-6
0.189, 7.439e-6
0.190, 7.698e-6
0.191, 7.956e-6
0.192, 8.214e-6
0.193, 8.472e-6
0.194, 8.728e-6
0.195, 8.984e-6
0.196, 9.240e-6
0.197, 9.497e-6
0.198, 9.754e-6
0.199, 1.001e-5
0.200, 1.027e-5
0.201, 1.052e-5
0.202, 1.078e-5
0.203, 1.103e-5
0.204, 1.128e-5
0.205, 1.153e-5
0.206, 1.178e-5
0.207, 1.203e-5
0.208, 1.228e-5
0.209, 1.253e-5
0.210, 1.278e-5
0.211, 1.302e-5
0.212, 1.326e-5
0.213, 1.349e-5
0.214, 1.373e-5
0.215, 1.396e-5
0.216, 1.419e-5
0.217, 1.442e-5
0.218, 1.465e-5
0.219, 1.487e-5
0.220, 1.509e-5
0.221, 1.531e-5
0.222, 1.552e-5
0.223, 1.572e-5
0.224, 1.592e-5
0.225, 1.612e-5
0.226, 1.631e-5
0.227, 1.650e-5
0.228, 1.669e-5
0.229, 1.687e-5
0.230, 1.706e-5
0.231, 1.724e-5
0.232, 1.741e-5
0.233, 1.757e-5
0.234, 1.773e-5
0.235, 1.789e-5
0.236, 1.803e-5
0.237, 1.818e-5
0.238, 1.831e-5
0.239, 1.845e-5
0.240, 1.857e-5
0.241, 1.870e-5
0.242, 1.882e-5
0.243, 1.894e-5
0.244, 1.905e-5
0.245, 1.916e-5
0.246, 1.925e-5
0.247, 1.935e-5
0.248, 1.943e-5
0.249, 1.952e-5
0.250, 1.960e-5
0.251, 1.967e-5
0.252, 1.974e-5
0.253, 1.981e-5
0.254, 1.987e-5
0.255, 1.993e-5
0.256, 1.999e-5
0.257, 2.004e-5
0.258, 2.008e-5
