20 mV/s
Potential/V, Current/A
0.500, 1.829e-6
0.499, 1.802e-6
0.498, 1.777e-6
0.497, 1.755e-6
0.496, 1.736e-6
0.495, 1.718e-6
0.494, 1.701e-6
0.493, 1.682e-6
0.492, 1.662e-6
0.491, 1.643e-6
0.490, 1.626e-6
0.489, 1.613e-6
0.488, 1.602e-6
0.487, 1.592e-6
0.486, 1.581e-6
0.485, 1.568e-6
0.484, 1.554e-6
0.483, 1.539e-6
0.482, 1.524e-6
0.481, 1.511e-6
0.480, 1.499e-6
0.479, 1.488e-6
0.478, 1.478e-6
0.477, 1.467e-6
0.476, 1.456e-6
0.475, 1.445e-6
0.474, 1.433e-6
0.473, 1.420e-6
0.472, 1.408e-6
0.471, 1.396e-6
0.470, 1.384e-6
0.469, 1.375e-6
0.468, 1.366e-6
0.467, 1.359e-6
0.466, 1.352e-6
0.465, 1.345e-6
0.464, 1.338e-6
0.463, 1.330e-6
0.462, 1.321e-6
0.461, 1.312e-6
0.460, 1.303e-6
0.459, 1.294e-6
0.458, 1.285e-6
0.457, 1.276e-6
0.456, 1.267e-6
0.455, 1.258e-6
0.454, 1.251e-6
0.453, 1.244e-6
0.452, 1.238e-6
0.451, 1.231e-6
0.450, 1.225e-6
0.449, 1.218e-6
0.448, 1.211e-6
0.447, 1.202e-6
0.446, 1.193e-6
0.445, 1.184e-6
0.444, 1.174e-6
0.443, 1.165e-6
0.442, 1.155e-6
0.441, 1.147e-6
0.440, 1.139e-6
0.439, 1.132e-6
0.438, 1.127e-6
0.437, 1.122e-6
0.436, 1.118e-6
0.435, 1.115e-6
0.434, 1.112e-6
0.433, 1.108e-6
0.432, 1.105e-6
0.431, 1.101e-6
0.430, 1.096e-6
0.429, 1.091e-6
0.428, 1.086e-6
0.427, 1.081e-6
0.426, 1.075e-6
0.425, 1.069e-6
0.424, 1.064e-6
0.423, 1.058e-6
0.422, 1.052e-6
0.421, 1.047e-6
0.420, 1.041e-6
0.419, 1.035e-6
0.418, 1.030e-6
0.417, 1.024e-6
0.416, 1.019e-6
0.415, 1.014e-6
0.414, 1.009e-6
0.413, 1.005e-6
0.412, 1.000e-6
0.411, 9.963e-7
0.410, 9.922e-7
0.409, 9.880e-7
0.408, 9.838e-7
0.407, 9.794e-7
0.406, 9.749e-7
0.405, 9.701e-7
0.404, 9.651e-7
0.403, 9.600e-7
0.402, 9.548e-7
0.401, 9.496e-7
0.400, 9.443e-7
0.399, 9.391e-7
0.398, 9.339e-7
0.397, 9.286e-7
0.396, 9.235e-7
0.395, 9.182e-7
0.394, 9.131e-7
0.393, 9.080e-7
0.392, 9.031e-7
0.391, 8.983e-7
0.390, 8.938e-7
0.389, 8.894e-7
0.388, 8.853e-7
0.387, 8.814e-7
0.386, 8.779e-7
0.385, 8.745e-7
0.384, 8.713e-7
0.383, 8.681e-7
0.382, 8.649e-7
0.381, 8.618e-7
0.380, 8.584e-7
0.379, 8.550e-7
0.378, 8.512e-7
0.377, 8.472e-7
0.376, 8.430e-7
0.375, 8.385e-7
0.374, 8.339e-7
0.373, 8.293e-7
0.372, 8.245e-7
0.371, 8.195e-7
0.370, 8.144e-7
0.369, 8.090e-7
0.368, 8.036e-7
0.367, 7.979e-7
0.366, 7.922e-7
0.365, 7.865e-7
0.364, 7.807e-7
0.363, 7.751e-7
0.362, 7.696e-7
0.361, 7.644e-7
0.360, 7.593e-7
0.359, 7.545e-7
0.358, 7.500e-7
0.357, 7.454e-7
0.356, 7.407e-7
0.355, 7.357e-7
0.354, 7.302e-7
0.353, 7.241e-7
0.352, 7.174e-7
0.351, 7.101e-7
0.350, 7.025e-7
0.349, 6.948e-7
0.348, 6.870e-7
0.347, 6.791e-7
0.346, 6.714e-7
0.345, 6.639e-7
0.344, 6.568e-7
0.343, 6.501e-7
0.342, 6.441e-7
0.341, 6.387e-7
0.340, 6.341e-7
0.339, 6.303e-7
0.338, 6.272e-7
0.337, 6.243e-7
0.336, 6.213e-7
0.335, 6.176e-7
0.334, 6.130e-7
0.333, 6.075e-7
0.332, 6.011e-7
0.331, 5.940e-7
0.330, 5.865e-7
0.329, 5.783e-7
0.328, 5.696e-7
0.327, 5.604e-7
0.326, 5.506e-7
0.325, 5.406e-7
0.324, 5.307e-7
0.323, 5.213e-7
0.322, 5.123e-7
0.321, 5.037e-7
0.320, 4.949e-7
0.319, 4.854e-7
0.318, 4.749e-7
0.317, 4.633e-7
0.316, 4.505e-7
0.315, 4.370e-7
0.314, 4.231e-7
0.313, 4.096e-7
0.312, 3.971e-7
0.311, 3.856e-7
0.310, 3.743e-7
0.309, 3.619e-7
0.308, 3.477e-7
0.307, 3.316e-7
0.306, 3.143e-7
0.305, 2.972e-7
0.304, 2.811e-7
0.303, 2.659e-7
0.302, 2.502e-7
0.301, 2.322e-7
0.300, 2.111e-7
0.299, 1.884e-7
0.298, 1.665e-7
0.297, 1.477e-7
0.296, 1.315e-7
0.295, 1.151e-7
0.294, 9.623e-8
0.293, 7.456e-8
0.292, 5.123e-8
0.291, 2.737e-8
0.290, 2.568e-9
0.289, -2.394e-8
0.288, -5.192e-8
0.287, -8.013e-8
0.286, -1.073e-7
0.285, -1.338e-7
0.284, -1.609e-7
0.283, -1.906e-7
0.282, -2.233e-7
0.281, -2.579e-7
0.280, -2.927e-7
0.279, -3.259e-7
0.278, -3.572e-7
0.277, -3.888e-7
0.276, -4.236e-7
0.275, -4.617e-7
0.274, -5.026e-7
0.273, -5.447e-7
0.272, -5.860e-7
0.271, -6.277e-7
0.270, -6.718e-7
0.269, -7.181e-7
0.268, -7.665e-7
0.267, -8.163e-7
0.266, -8.661e-7
0.265, -9.161e-7
0.264, -9.666e-7
0.263, -1.017e-6
0.262, -1.068e-6
0.261, -1.122e-6
0.260, -1.179e-6
0.259, -1.239e-6
0.258, -1.301e-6
0.257, -1.363e-6
0.256, -1.426e-6
0.255, -1.491e-6
0.254, -1.559e-6
0.253, -1.629e-6
0.252, -1.702e-6
0.251, -1.774e-6
0.250, -1.844e-6
0.249, -1.916e-6
0.248, -1.993e-6
0.247, -2.073e-6
0.246, -2.157e-6
0.245, -2.243e-6
0.244, -2.328e-6
0.243, -2.414e-6
0.242, -2.503e-6
0.241, -2.594e-6
0.240, -2.686e-6
0.239, -2.780e-6
0.238, -2.876e-6
0.237, -2.975e-6
0.236, -3.076e-6
0.235, -3.178e-6
0.234, -3.280e-6
0.233, -3.382e-6
0.232, -3.489e-6
0.231, -3.599e-6
0.230, -3.714e-6
0.229, -3.829e-6
0.228, -3.946e-6
0.227, -4.061e-6
0.226, -4.177e-6
0.225, -4.294e-6
0.224, -4.414e-6
0.223, -4.537e-6
0.222, -4.662e-6
0.221, -4.789e-6
0.220, -4.916e-6
0.219, -5.043e-6
0.218, -5.171e-6
0.217, -5.300e-6
0.216, -5.430e-6
0.215, -5.562e-6
0.214, -5.694e-6
0.213, -5.827e-6
0.212, -5.961e-6
0.211, -6.095e-6
0.210, -6.231e-6
0.209, -6.369e-6
0.208, -6.505e-6
0.207, -6.641e-6
0.206, -6.775e-6
0.205, -6.907e-6
0.204, -7.040e-6
0.203, -7.172e-6
0.202, -7.304e-6
0.201, -7.436e-6
0.200, -7.569e-6
0.199, -7.701e-6
0.198, -7.833e-6
0.197, -7.965e-6
0.196, -8.095e-6
0.195, -8.224e-6
0.194, -8.353e-6
0.193, -8.480e-6
0.192, -8.607e-6
0.191, -8.730e-6
0.190, -8.851e-6
0.189, -8.969e-6
0.188, -9.082e-6
0.187, -9.193e-6
0.186, -9.301e-6
0.185, -9.409e-6
0.184, -9.515e-6
0.183, -9.620e-6
0.182, -9.721e-6
0.181, -9.821e-6
0.180, -9.920e-6
0.179, -1.002e-5
0.178, -1.011e-5
0.177, -1.020e-5
0.176, -1.028e-5
0.175, -1.036e-5
0.174, -1.044e-5
0.173, -1.051e-5
0.172, -1.058e-5
0.171, -1.065e-5
0.170, -1.071e-5
0.169, -1.077e-5
0.168, -1.083e-5
0.167, -1.089e-5
0.166, -1.095e-5
0.165, -1.100e-5
0.164, -1.104e-5
0.163, -1.108e-5
0.162, -1.111e-5
0.161, -1.114e-5
0.160, -1.117e-5
0.159, -1.119e-5
0.158, -1.122e-5
0.157, -1.124e-5
0.156, -1.126e-5
0.155, -1.128e-5
0.154, -1.130e-5
0.153, -1.131e-5
0.152, -1.132e-5
0.151, -1.133e-5
0.150, -1.133e-5
0.149, -1.133e-5
0.148, -1.133e-5
0.147, -1.132e-5
0.146, -1.131e-5
0.145, -1.130e-5
0.144, -1.129e-5
0.143, -1.127e-5
0.142, -1.126e-5
0.141, -1.124e-5
0.140, -1.122e-5
0.139, -1.120e-5
0.138, -1.118e-5
0.137, -1.115e-5
0.136, -1.113e-5
0.135, -1.111e-5
0.134, -1.109e-5
0.133, -1.106e-5
0.132, -1.102e-5
0.131, -1.099e-5
0.130, -1.095e-5
0.129, -1.091e-5
0.128, -1.088e-5
0.127, -1.084e-5
0.126, -1.080e-5
0.125, -1.076e-5
0.124, -1.072e-5
0.123, -1.068e-5
0.122, -1.064e-5
0.121, -1.060e-5
0.120, -1.055e-5
0.119, -1.051e-5
0.118, -1.047e-5
0.117, -1.042e-5
0.116, -1.038e-5
0.115, -1.033e-5
0.114, -1.029e-5
0.113, -1.024e-5
0.112, -1.019e-5
0.111, -1.015e-5
0.110, -1.011e-5
0.109, -1.006e-5
0.108, -1.001e-5
0.107, -9.964e-6
0.106, -9.917e-6
0.105, -9.871e-6
0.104, -9.825e-6
0.103, -9.780e-6
0.102, -9.735e-6
0.101, -9.692e-6
0.100, -9.649e-6
0.099, -9.604e-6
0.098, -9.557e-6
0.097, -9.508e-6
0.096, -9.461e-6
0.095, -9.415e-6
0.094, -9.372e-6
0.093, -9.327e-6
0.092, -9.282e-6
0.091, -9.239e-6
0.090, -9.198e-6
0.089, -9.159e-6
0.088, -9.120e-6
0.087, -9.077e-6
0.086, -9.033e-6
0.085, -8.990e-6
0.084, -8.947e-6
0.083, -8.908e-6
0.082, -8.868e-6
0.081, -8.826e-6
0.080, -8.785e-6
0.079, -8.745e-6
0.078, -8.706e-6
0.077, -8.670e-6
0.076, -8.633e-6
0.075, -8.594e-6
0.074, -8.553e-6
0.073, -8.513e-6
0.072, -8.475e-6
0.071, -8.439e-6
0.070, -8.403e-6
0.069, -8.366e-6
0.068, -8.327e-6
0.067, -8.288e-6
0.066, -8.252e-6
0.065, -8.219e-6
0.064, -8.189e-6
0.063, -8.159e-6
0.062, -8.126e-6
0.061, -8.091e-6
0.060, -8.055e-6
0.059, -8.020e-6
0.058, -7.986e-6
0.057, -7.954e-6
0.056, -7.922e-6
0.055, -7.890e-6
0.054, -7.858e-6
0.053, -7.827e-6
0.052, -7.795e-6
0.051, -7.764e-6
0.050, -7.735e-6
0.049, -7.708e-6
0.048, -7.682e-6
0.047, -7.655e-6
0.046, -7.625e-6
0.045, -7.593e-6
0.044, -7.561e-6
0.043, -7.530e-6
0.042, -7.502e-6
0.041, -7.476e-6
0.040, -7.451e-6
0.039, -7.427e-6
0.038, -7.403e-6
0.037, -7.377e-6
0.036, -7.351e-6
0.035, -7.325e-6
0.034, -7.299e-6
0.033, -7.273e-6
0.032, -7.249e-6
0.031, -7.227e-6
0.030, -7.209e-6
0.029, -7.192e-6
0.028, -7.172e-6
0.027, -7.147e-6
0.026, -7.120e-6
0.025, -7.093e-6
0.024, -7.067e-6
0.023, -7.043e-6
0.022, -7.020e-6
0.021, -6.998e-6
0.020, -6.977e-6
0.019, -6.957e-6
0.018, -6.937e-6
0.017, -6.915e-6
0.016, -6.892e-6
0.015, -6.869e-6
0.014, -6.847e-6
0.013, -6.827e-6
0.012, -6.807e-6
0.011, -6.786e-6
0.010, -6.765e-6
0.009, -6.744e-6
0.008, -6.727e-6
0.007, -6.711e-6
0.006, -6.696e-6
0.005, -6.678e-6
0.004, -6.657e-6
0.003, -6.635e-6
0.002, -6.615e-6
0.001, -6.597e-6
0.000, -6.580e-6
-0.001, -6.564e-6
-0.002, -6.546e-6
-0.003, -6.527e-6
-0.004, -6.509e-6
-0.005, -6.492e-6
-0.006, -6.477e-6
-0.007, -6.462e-6
-0.008, -6.446e-6
-0.009, -6.429e-6
-0.010, -6.410e-6
-0.011, -6.390e-6
-0.012, -6.372e-6
-0.013, -6.355e-6
-0.014, -6.338e-6
-0.015, -6.321e-6
-0.016, -6.305e-6
-0.017, -6.287e-6
-0.018, -6.271e-6
-0.019, -6.255e-6
-0.020, -6.242e-6
-0.021, -6.231e-6
-0.022, -6.221e-6
-0.023, -6.212e-6
-0.024, -6.200e-6
-0.025, -6.185e-6
-0.026, -6.166e-6
-0.027, -6.147e-6
-0.028, -6.129e-6
-0.029, -6.113e-6
-0.030, -6.099e-6
-0.031, -6.086e-6
-0.032, -6.073e-6
-0.033, -6.058e-6
-0.034, -6.043e-6
-0.035, -6.028e-6
-0.036, -6.014e-6
-0.037, -6.001e-6
-0.038, -5.990e-6
-0.039, -5.980e-6
-0.040, -5.969e-6
-0.041, -5.957e-6
-0.042, -5.943e-6
-0.043, -5.928e-6
-0.044, -5.912e-6
-0.045, -5.896e-6
-0.046, -5.882e-6
-0.047, -5.870e-6
-0.048, -5.859e-6
-0.049, -5.848e-6
-0.050, -5.837e-6
-0.051, -5.825e-6
-0.052, -5.812e-6
-0.053, -5.799e-6
-0.054, -5.786e-6
-0.055, -5.774e-6
-0.056, -5.762e-6
-0.057, -5.752e-6
-0.058, -5.743e-6
-0.059, -5.736e-6
-0.060, -5.730e-6
-0.061, -5.723e-6
-0.062, -5.714e-6
-0.063, -5.703e-6
-0.064, -5.690e-6
-0.065, -5.676e-6
-0.066, -5.661e-6
-0.067, -5.647e-6
-0.068, -5.635e-6
-0.069, -5.625e-6
-0.070, -5.615e-6
-0.071, -5.606e-6
-0.072, -5.597e-6
-0.073, -5.587e-6
-0.074, -5.576e-6
-0.075, -5.564e-6
-0.076, -5.552e-6
-0.077, -5.540e-6
-0.078, -5.528e-6
-0.079, -5.517e-6
-0.080, -5.508e-6
-0.081, -5.500e-6
-0.082, -5.492e-6
-0.083, -5.485e-6
-0.084, -5.478e-6
-0.085, -5.470e-6
-0.086, -5.460e-6
-0.087, -5.450e-6
-0.088, -5.439e-6
-0.089, -5.428e-6
-0.090, -5.418e-6
-0.091, -5.408e-6
-0.092, -5.398e-6
-0.093, -5.389e-6
-0.094, -5.380e-6
-0.095, -5.371e-6
-0.096, -5.363e-6
-0.097, -5.355e-6
-0.098, -5.346e-6
-0.099, -5.337e-6
-0.100, -5.328e-6
-0.101, -5.318e-6
-0.102, -5.309e-6
-0.103, -5.300e-6
-0.104, -5.291e-6
-0.105, -5.282e-6
-0.106, -5.274e-6
-0.107, -5.266e-6
-0.108, -5.260e-6
-0.109, -5.254e-6
-0.110, -5.249e-6
-0.111, -5.245e-6
-0.112, -5.241e-6
-0.113, -5.237e-6
-0.114, -5.232e-6
-0.115, -5.226e-6
-0.116, -5.219e-6
-0.117, -5.210e-6
-0.118, -5.201e-6
-0.119, -5.191e-6
-0.120, -5.181e-6
-0.121, -5.172e-6
-0.122, -5.163e-6
-0.123, -5.154e-6
-0.124, -5.146e-6
-0.125, -5.138e-6
-0.126, -5.131e-6
-0.127, -5.124e-6
-0.128, -5.117e-6
-0.129, -5.110e-6
-0.130, -5.102e-6
-0.131, -5.095e-6
-0.132, -5.087e-6
-0.133, -5.079e-6
-0.134, -5.071e-6
-0.135, -5.063e-6
-0.136, -5.055e-6
-0.137, -5.048e-6
-0.138, -5.041e-6
-0.139, -5.034e-6
-0.140, -5.027e-6
-0.141, -5.021e-6
-0.142, -5.015e-6
-0.143, -5.009e-6
-0.144, -5.004e-6
-0.145, -5.000e-6
-0.146, -4.995e-6
-0.147, -4.991e-6
-0.148, -4.985e-6
-0.149, -4.980e-6
-0.150, -4.973e-6
-0.151, -4.967e-6
-0.152, -4.959e-6
-0.153, -4.952e-6
-0.154, -4.945e-6
-0.155, -4.938e-6
-0.156, -4.931e-6
-0.157, -4.924e-6
-0.158, -4.917e-6
-0.159, -4.911e-6
-0.160, -4.904e-6
-0.161, -4.898e-6
-0.162, -4.892e-6
-0.163, -4.886e-6
-0.164, -4.881e-6
-0.165, -4.876e-6
-0.166, -4.871e-6
-0.167, -4.866e-6
-0.168, -4.860e-6
-0.169, -4.855e-6
-0.170, -4.849e-6
-0.171, -4.843e-6
-0.172, -4.837e-6
-0.173, -4.831e-6
-0.174, -4.825e-6
-0.175, -4.819e-6
-0.176, -4.813e-6
-0.177, -4.808e-6
-0.178, -4.803e-6
-0.179, -4.797e-6
-0.180, -4.792e-6
-0.181, -4.787e-6
-0.182, -4.781e-6
-0.183, -4.777e-6
-0.184, -4.772e-6
-0.185, -4.768e-6
-0.186, -4.764e-6
-0.187, -4.761e-6
-0.188, -4.758e-6
-0.189, -4.755e-6
-0.190, -4.752e-6
-0.191, -4.749e-6
-0.192, -4.746e-6
-0.193, -4.742e-6
-0.194, -4.738e-6
-0.195, -4.733e-6
-0.196, -4.728e-6
-0.197, -4.723e-6
-0.198, -4.717e-6
-0.199, -4.710e-6
-0.200, -4.659e-6
-0.199, -4.639e-6
-0.198, -4.621e-6
-0.197, -4.606e-6
-0.196, -4.594e-6
-0.195, -4.583e-6
-0.194, -4.572e-6
-0.193, -4.561e-6
-0.192, -4.551e-6
-0.191, -4.542e-6
-0.190, -4.533e-6
-0.189, -4.525e-6
-0.188, -4.519e-6
-0.187, -4.513e-6
-0.186, -4.507e-6
-0.185, -4.502e-6
-0.184, -4.495e-6
-0.183, -4.488e-6
-0.182, -4.481e-6
-0.181, -4.472e-6
-0.180, -4.464e-6
-0.179, -4.455e-6
-0.178, -4.447e-6
-0.177, -4.439e-6
-0.176, -4.432e-6
-0.175, -4.425e-6
-0.174, -4.418e-6
-0.173, -4.411e-6
-0.172, -4.405e-6
-0.171, -4.399e-6
-0.170, -4.393e-6
-0.169, -4.388e-6
-0.168, -4.383e-6
-0.167, -4.377e-6
-0.166, -4.372e-6
-0.165, -4.366e-6
-0.164, -4.359e-6
-0.163, -4.352e-6
-0.162, -4.346e-6
-0.161, -4.339e-6
-0.160, -4.331e-6
-0.159, -4.324e-6
-0.158, -4.318e-6
-0.157, -4.311e-6
-0.156, -4.305e-6
-0.155, -4.299e-6
-0.154, -4.293e-6
-0.153, -4.288e-6
-0.152, -4.283e-6
-0.151, -4.279e-6
-0.150, -4.275e-6
-0.149, -4.272e-6
-0.148, -4.269e-6
-0.147, -4.266e-6
-0.146, -4.263e-6
-0.145, -4.261e-6
-0.144, -4.257e-6
-0.143, -4.254e-6
-0.142, -4.249e-6
-0.141, -4.245e-6
-0.140, -4.239e-6
-0.139, -4.234e-6
-0.138, -4.228e-6
-0.137, -4.221e-6
-0.136, -4.215e-6
-0.135, -4.208e-6
-0.134, -4.201e-6
-0.133, -4.195e-6
-0.132, -4.188e-6
-0.131, -4.182e-6
-0.130, -4.176e-6
-0.129, -4.171e-6
-0.128, -4.166e-6
-0.127, -4.161e-6
-0.126, -4.157e-6
-0.125, -4.153e-6
-0.124, -4.149e-6
-0.123, -4.145e-6
-0.122, -4.141e-6
-0.121, -4.137e-6
-0.120, -4.134e-6
-0.119, -4.129e-6
-0.118, -4.125e-6
-0.117, -4.120e-6
-0.116, -4.116e-6
-0.115, -4.110e-6
-0.114, -4.105e-6
-0.113, -4.100e-6
-0.112, -4.095e-6
-0.111, -4.090e-6
-0.110, -4.085e-6
-0.109, -4.080e-6
-0.108, -4.075e-6
-0.107, -4.070e-6
-0.106, -4.065e-6
-0.105, -4.060e-6
-0.104, -4.056e-6
-0.103, -4.051e-6
-0.102, -4.047e-6
-0.101, -4.043e-6
-0.100, -4.039e-6
-0.099, -4.035e-6
-0.098, -4.032e-6
-0.097, -4.029e-6
-0.096, -4.026e-6
-0.095, -4.023e-6
-0.094, -4.020e-6
-0.093, -4.018e-6
-0.092, -4.015e-6
-0.091, -4.011e-6
-0.090, -4.008e-6
-0.089, -4.004e-6
-0.088, -4.000e-6
-0.087, -3.996e-6
-0.086, -3.991e-6
-0.085, -3.987e-6
-0.084, -3.982e-6
-0.083, -3.977e-6
-0.082, -3.971e-6
-0.081, -3.966e-6
-0.080, -3.961e-6
-0.079, -3.956e-6
-0.078, -3.951e-6
-0.077, -3.946e-6
-0.076, -3.941e-6
-0.075, -3.936e-6
-0.074, -3.931e-6
-0.073, -3.926e-6
-0.072, -3.921e-6
-0.071, -3.917e-6
-0.070, -3.913e-6
-0.069, -3.909e-6
-0.068, -3.905e-6
-0.067, -3.901e-6
-0.066, -3.898e-6
-0.065, -3.894e-6
-0.064, -3.890e-6
-0.063, -3.886e-6
-0.062, -3.883e-6
-0.061, -3.879e-6
-0.060, -3.875e-6
-0.059, -3.871e-6
-0.058, -3.866e-6
-0.057, -3.862e-6
-0.056, -3.858e-6
-0.055, -3.853e-6
-0.054, -3.849e-6
-0.053, -3.845e-6
-0.052, -3.840e-6
-0.051, -3.836e-6
-0.050, -3.832e-6
-0.049, -3.828e-6
-0.048, -3.824e-6
-0.047, -3.820e-6
-0.046, -3.816e-6
-0.045, -3.812e-6
-0.044, -3.808e-6
-0.043, -3.804e-6
-0.042, -3.801e-6
-0.041, -3.797e-6
-0.040, -3.794e-6
-0.039, -3.790e-6
-0.038, -3.787e-6
-0.037, -3.785e-6
-0.036, -3.782e-6
-0.035, -3.780e-6
-0.034, -3.778e-6
-0.033, -3.776e-6
-0.032, -3.774e-6
-0.031, -3.772e-6
-0.030, -3.770e-6
-0.029, -3.767e-6
-0.028, -3.764e-6
-0.027, -3.761e-6
-0.026, -3.757e-6
-0.025, -3.752e-6
-0.024, -3.748e-6
-0.023, -3.743e-6
-0.022, -3.738e-6
-0.021, -3.732e-6
-0.020, -3.727e-6
-0.019, -3.721e-6
-0.018, -3.715e-6
-0.017, -3.709e-6
-0.016, -3.704e-6
-0.015, -3.698e-6
-0.014, -3.692e-6
-0.013, -3.687e-6
-0.012, -3.682e-6
-0.011, -3.678e-6
-0.010, -3.673e-6
-0.009, -3.669e-6
-0.008, -3.665e-6
-0.007, -3.661e-6
-0.006, -3.658e-6
-0.005, -3.654e-6
-0.004, -3.651e-6
-0.003, -3.647e-6
-0.002, -3.644e-6
-0.001, -3.639e-6
-0.000, -3.635e-6
0.001, -3.631e-6
0.002, -3.626e-6
0.003, -3.622e-6
0.004, -3.617e-6
0.005, -3.612e-6
0.006, -3.606e-6
0.007, -3.601e-6
0.008, -3.596e-6
0.009, -3.590e-6
0.010, -3.585e-6
0.011, -3.580e-6
0.012, -3.574e-6
0.013, -3.569e-6
0.014, -3.563e-6
0.015, -3.558e-6
0.016, -3.553e-6
0.017, -3.548e-6
0.018, -3.544e-6
0.019, -3.540e-6
0.020, -3.536e-6
0.021, -3.532e-6
0.022, -3.529e-6
0.023, -3.525e-6
0.024, -3.520e-6
0.025, -3.515e-6
0.026, -3.510e-6
0.027, -3.504e-6
0.028, -3.498e-6
0.029, -3.492e-6
0.030, -3.485e-6
0.031, -3.479e-6
0.032, -3.472e-6
0.033, -3.465e-6
0.034, -3.459e-6
0.035, -3.452e-6
0.036, -3.445e-6
0.037, -3.438e-6
0.038, -3.432e-6
0.039, -3.426e-6
0.040, -3.420e-6
0.041, -3.414e-6
0.042, -3.408e-6
0.043, -3.403e-6
0.044, -3.397e-6
0.045, -3.390e-6
0.046, -3.383e-6
0.047, -3.375e-6
0.048, -3.367e-6
0.049, -3.358e-6
0.050, -3.350e-6
0.051, -3.341e-6
0.052, -3.333e-6
0.053, -3.325e-6
0.054, -3.317e-6
0.055, -3.309e-6
0.056, -3.302e-6
0.057, -3.297e-6
0.058, -3.292e-6
0.059, -3.289e-6
0.060, -3.286e-6
0.061, -3.283e-6
0.062, -3.278e-6
0.063, -3.272e-6
0.064, -3.262e-6
0.065, -3.251e-6
0.066, -3.237e-6
0.067, -3.221e-6
0.068, -3.205e-6
0.069, -3.190e-6
0.070, -3.176e-6
0.071, -3.163e-6
0.072, -3.150e-6
0.073, -3.137e-6
0.074, -3.123e-6
0.075, -3.108e-6
0.076, -3.093e-6
0.077, -3.078e-6
0.078, -3.065e-6
0.079, -3.053e-6
0.080, -3.041e-6
0.081, -3.028e-6
0.082, -3.012e-6
0.083, -2.994e-6
0.084, -2.975e-6
0.085, -2.956e-6
0.086, -2.939e-6
0.087, -2.922e-6
0.088, -2.905e-6
0.089, -2.886e-6
0.090, -2.865e-6
0.091, -2.844e-6
0.092, -2.825e-6
0.093, -2.808e-6
0.094, -2.792e-6
0.095, -2.772e-6
0.096, -2.749e-6
0.097, -2.722e-6
0.098, -2.696e-6
0.099, -2.670e-6
0.100, -2.644e-6
0.101, -2.618e-6
0.102, -2.592e-6
0.103, -2.567e-6
0.104, -2.540e-6
0.105, -2.512e-6
0.106, -2.480e-6
0.107, -2.447e-6
0.108, -2.414e-6
0.109, -2.382e-6
0.110, -2.352e-6
0.111, -2.322e-6
0.112, -2.291e-6
0.113, -2.255e-6
0.114, -2.214e-6
0.115, -2.173e-6
0.116, -2.132e-6
0.117, -2.091e-6
0.118, -2.050e-6
0.119, -2.006e-6
0.120, -1.961e-6
0.121, -1.918e-6
0.122, -1.876e-6
0.123, -1.834e-6
0.124, -1.788e-6
0.125, -1.737e-6
0.126, -1.682e-6
0.127, -1.626e-6
0.128, -1.569e-6
0.129, -1.512e-6
0.130, -1.456e-6
0.131, -1.399e-6
0.132, -1.342e-6
0.133, -1.283e-6
0.134, -1.220e-6
0.135, -1.156e-6
0.136, -1.091e-6
0.137, -1.026e-6
0.138, -9.581e-7
0.139, -8.875e-7
0.140, -8.135e-7
0.141, -7.362e-7
0.142, -6.577e-7
0.143, -5.785e-7
0.144, -4.983e-7
0.145, -4.173e-7
0.146, -3.356e-7
0.147, -2.510e-7
0.148, -1.643e-7
0.149, -7.575e-8
0.150, 1.546e-8
0.151, 1.084e-7
0.152, 2.044e-7
0.153, 3.030e-7
0.154, 4.022e-7
0.155, 5.006e-7
0.156, 5.996e-7
0.157, 6.994e-7
0.158, 8.036e-7
0.159, 9.108e-7
0.160, 1.020e-6
0.161, 1.131e-6
0.162, 1.243e-6
0.163, 1.357e-6
0.164, 1.472e-6
0.165, 1.590e-6
0.166, 1.709e-6
0.167, 1.831e-6
0.168, 1.954e-6
0.169, 2.078e-6
0.170, 2.202e-6
0.171, 2.327e-6
0.172, 2.452e-6
0.173, 2.578e-6
0.174, 2.705e-6
0.175, 2.833e-6
0.176, 2.964e-6
0.177, 3.097e-6
0.178, 3.232e-6
0.179, 3.368e-6
0.180, 3.504e-6
0.181, 3.639e-6
0.182, 3.772e-6
0.183, 3.906e-6
0.184, 4.041e-6
0.185, 4.175e-6
0.186, 4.307e-6
0.187, 4.438e-6
0.188, 4.567e-6
0.189, 4.699e-6
0.190, 4.834e-6
0.191, 4.969e-6
0.192, 5.103e-6
0.193, 5.236e-6
0.194, 5.367e-6
0.195, 5.497e-6
0.196, 5.626e-6
0.197, 5.753e-6
0.198, 5.877e-6
0.199, 5.999e-6
0.200, 6.121e-6
0.201, 6.242e-6
0.202, 6.359e-6
0.203, 6.472e-6
0.204, 6.582e-6
0.205, 6.689e-6
0.206, 6.795e-6
0.207, 6.900e-6
0.208, 7.004e-6
0.209, 7.107e-6
0.210, 7.208e-6
0.211, 7.304e-6
0.212, 7.398e-6
0.213, 7.487e-6
0.214, 7.575e-6
0.215, 7.661e-6
0.216, 7.744e-6
0.217, 7.824e-6
0.218, 7.900e-6
0.219, 7.973e-6
0.220, 8.043e-6
0.221, 8.109e-6
0.222, 8.171e-6
0.223, 8.229e-6
0.224, 8.286e-6
0.225, 8.338e-6
0.226, 8.386e-6
0.227, 8.427e-6
0.228, 8.463e-6
0.229, 8.499e-6
0.230, 8.536e-6
0.231, 8.573e-6
0.232, 8.606e-6
0.233, 8.635e-6
0.234, 8.657e-6
0.235, 8.675e-6
0.236, 8.689e-6
0.237, 8.699e-6
0.238, 8.707e-6
0.239, 8.714e-6
0.240, 8.719e-6
0.241, 8.722e-6
0.242, 8.723e-6
0.243, 8.722e-6
0.244, 8.718e-6
0.245, 8.712e-6
0.246, 8.704e-6
0.247, 8.695e-6
0.248, 8.683e-6
0.249, 8.668e-6
0.250, 8.648e-6
0.251, 8.627e-6
0.252, 8.604e-6
0.253, 8.580e-6
0.254, 8.554e-6
0.255, 8.526e-6
0.256, 8.498e-6
0.257, 8.472e-6
0.258, 8.448e-6
0.259, 8.423e-6
0.260, 8.392e-6
0.261, 8.355e-6
0.262, 8.315e-6
0.263, 8.274e-6
0.264, 8.234e-6
0.265, 8.195e-6
0.266, 8.155e-6
0.267, 8.113e-6
0.268, 8.069e-6
0.269, 8.025e-6
