Próbka
Potential/V, Current/A
0.500, 3.296e-7
0.499, 2.946e-7
0.498, 2.670e-7
0.497, 2.468e-7
0.496, 2.370e-7
0.495, 2.313e-7
0.494, 2.263e-7
0.493, 2.191e-7
0.492, 2.121e-7
0.491, 2.052e-7
0.490, 1.984e-7
0.489, 1.917e-7
0.488, 1.852e-7
0.487, 1.791e-7
0.486, 1.737e-7
0.485, 1.691e-7
0.484, 1.648e-7
0.483, 1.610e-7
0.482, 1.574e-7
0.481, 1.540e-7
0.480, 1.509e-7
0.479, 1.483e-7
0.478, 1.458e-7
0.477, 1.436e-7
0.476, 1.415e-7
0.475, 1.395e-7
0.474, 1.378e-7
0.473, 1.362e-7
0.472, 1.347e-7
0.471, 1.332e-7
0.470, 1.317e-7
0.469, 1.302e-7
0.468, 1.288e-7
0.467, 1.275e-7
0.466, 1.260e-7
0.465, 1.244e-7
0.464, 1.227e-7
0.463, 1.207e-7
0.462, 1.187e-7
0.461, 1.166e-7
0.460, 1.146e-7
0.459, 1.127e-7
0.458, 1.111e-7
0.457, 1.094e-7
0.456, 1.076e-7
0.455, 1.057e-7
0.454, 1.038e-7
0.453, 1.018e-7
0.452, 9.974e-8
0.451, 9.757e-8
0.450, 9.525e-8
0.449, 9.304e-8
0.448, 9.102e-8
0.447, 8.913e-8
0.446, 8.727e-8
0.445, 8.539e-8
0.444, 8.342e-8
0.443, 8.140e-8
0.442, 7.943e-8
0.441, 7.742e-8
0.440, 7.529e-8
0.439, 7.322e-8
0.438, 7.100e-8
0.437, 6.855e-8
0.436, 6.603e-8
0.435, 6.352e-8
0.434, 6.113e-8
0.433, 5.897e-8
0.432, 5.696e-8
0.431, 5.492e-8
0.430, 5.282e-8
0.429, 5.069e-8
0.428, 4.844e-8
0.427, 4.607e-8
0.426, 4.368e-8
0.425, 4.121e-8
0.424, 3.869e-8
0.423, 3.621e-8
0.422, 3.380e-8
0.421, 3.136e-8
0.420, 2.909e-8
0.419, 2.688e-8
0.418, 2.475e-8
0.417, 2.265e-8
0.416, 2.069e-8
0.415, 1.865e-8
0.414, 1.667e-8
0.413, 1.435e-8
0.412, 1.164e-8
0.411, 8.542e-9
0.410, 5.423e-9
0.409, 2.614e-9
0.408, 1.482e-10
0.407, -2.414e-9
0.406, -5.095e-9
0.405, -8.228e-9
0.404, -1.167e-8
0.403, -1.525e-8
0.402, -1.927e-8
0.401, -2.379e-8
0.400, -2.856e-8
0.399, -3.381e-8
0.398, -3.932e-8
0.397, -4.497e-8
0.396, -5.078e-8
0.395, -5.689e-8
0.394, -6.302e-8
0.393, -6.922e-8
0.392, -7.534e-8
0.391, -8.119e-8
0.390, -8.664e-8
0.389, -9.198e-8
0.388, -9.695e-8
0.387, -1.016e-7
0.386, -1.061e-7
0.385, -1.106e-7
0.384, -1.152e-7
0.383, -1.203e-7
0.382, -1.260e-7
0.381, -1.323e-7
0.380, -1.392e-7
0.379, -1.467e-7
0.378, -1.548e-7
0.377, -1.633e-7
0.376, -1.727e-7
0.375, -1.826e-7
0.374, -1.930e-7
0.373, -2.034e-7
0.372, -2.133e-7
0.371, -2.224e-7
0.370, -2.314e-7
0.369, -2.409e-7
0.368, -2.517e-7
0.367, -2.647e-7
0.366, -2.799e-7
0.365, -2.963e-7
0.364, -3.131e-7
0.363, -3.282e-7
0.362, -3.407e-7
0.361, -3.509e-7
0.360, -3.606e-7
0.359, -3.717e-7
0.358, -3.858e-7
0.357, -4.032e-7
0.356, -4.226e-7
0.355, -4.427e-7
0.354, -4.623e-7
0.353, -4.817e-7
0.352, -5.021e-7
0.351, -5.245e-7
0.350, -5.479e-7
0.349, -5.714e-7
0.348, -5.946e-7
0.347, -6.182e-7
0.346, -6.431e-7
0.345, -6.694e-7
0.344, -6.972e-7
0.343, -7.266e-7
0.342, -7.575e-7
0.341, -7.903e-7
0.340, -8.236e-7
0.339, -8.564e-7
0.338, -8.895e-7
0.337, -9.239e-7
0.336, -9.598e-7
0.335, -9.975e-7
0.334, -1.036e-6
0.333, -1.075e-6
0.332, -1.116e-6
0.331, -1.160e-6
0.330, -1.207e-6
0.329, -1.256e-6
0.328, -1.305e-6
0.327, -1.353e-6
0.326, -1.403e-6
0.325, -1.456e-6
0.324, -1.513e-6
0.323, -1.575e-6
0.322, -1.639e-6
0.321, -1.705e-6
0.320, -1.772e-6
0.319, -1.838e-6
0.318, -1.905e-6
0.317, -1.977e-6
0.316, -2.053e-6
0.315, -2.134e-6
0.314, -2.217e-6
0.313, -2.300e-6
0.312, -2.387e-6
0.311, -2.478e-6
0.310, -2.573e-6
0.309, -2.671e-6
0.308, -2.774e-6
0.307, -2.881e-6
0.306, -2.992e-6
0.305, -3.106e-6
0.304, -3.223e-6
0.303, -3.339e-6
0.302, -3.461e-6
0.301, -3.588e-6
0.300, -3.723e-6
0.299, -3.864e-6
0.298, -4.011e-6
0.297, -4.162e-6
0.296, -4.319e-6
0.295, -4.482e-6
0.294, -4.651e-6
0.293, -4.825e-6
0.292, -5.004e-6
0.291, -5.187e-6
0.290, -5.375e-6
0.289, -5.570e-6
0.288, -5.771e-6
0.287, -5.982e-6
0.286, -6.202e-6
0.285, -6.430e-6
0.284, -6.668e-6
0.283, -6.916e-6
0.282, -7.172e-6
0.281, -7.434e-6
0.280, -7.702e-6
0.279, -7.977e-6
0.278, -8.262e-6
0.277, -8.558e-6
0.276, -8.863e-6
0.275, -9.174e-6
0.274, -9.496e-6
0.273, -9.831e-6
0.272, -1.018e-5
0.271, -1.054e-5
0.270, -1.091e-5
0.269, -1.130e-5
0.268, -1.169e-5
0.267, -1.210e-5
0.266, -1.252e-5
0.265, -1.295e-5
0.264, -1.338e-5
0.263, -1.383e-5
0.262, -1.430e-5
0.261, -1.478e-5
0.260, -1.528e-5
0.259, -1.579e-5
0.258, -1.633e-5
0.257, -1.688e-5
0.256, -1.745e-5
0.255, -1.802e-5
0.254, -1.862e-5
0.253, -1.922e-5
0.252, -1.984e-5
0.251, -2.047e-5
0.250, -2.111e-5
0.249, -2.176e-5
0.248, -2.244e-5
0.247, -2.314e-5
0.246, -2.386e-5
0.245, -2.460e-5
0.244, -2.536e-5
0.243, -2.614e-5
0.242, -2.692e-5
0.241, -2.772e-5
0.240, -2.853e-5
0.239, -2.935e-5
0.238, -3.020e-5
0.237, -3.105e-5
0.236, -3.193e-5
0.235, -3.283e-5
0.234, -3.374e-5
0.233, -3.467e-5
0.232, -3.564e-5
0.231, -3.662e-5
0.230, -3.762e-5
0.229, -3.863e-5
0.228, -3.962e-5
0.227, -4.062e-5
0.226, -4.162e-5
0.225, -4.264e-5
0.224, -4.367e-5
0.223, -4.472e-5
0.222, -4.579e-5
0.221, -4.687e-5
0.220, -4.796e-5
0.219, -4.907e-5
0.218, -5.018e-5
0.217, -5.129e-5
0.216, -5.241e-5
0.215, -5.353e-5
0.214, -5.465e-5
0.213, -5.576e-5
0.212, -5.688e-5
0.211, -5.798e-5
0.210, -5.909e-5
0.209, -6.021e-5
0.208, -6.134e-5
0.207, -6.246e-5
0.206, -6.356e-5
0.205, -6.463e-5
0.204, -6.568e-5
0.203, -6.676e-5
0.202, -6.784e-5
0.201, -6.892e-5
0.200, -6.997e-5
0.199, -7.100e-5
0.198, -7.201e-5
0.197, -7.301e-5
0.196, -7.400e-5
0.195, -7.498e-5
0.194, -7.595e-5
0.193, -7.689e-5
0.192, -7.782e-5
0.191, -7.872e-5
0.190, -7.959e-5
0.189, -8.043e-5
0.188, -8.125e-5
0.187, -8.204e-5
0.186, -8.280e-5
0.185, -8.354e-5
0.184, -8.425e-5
0.183, -8.493e-5
0.182, -8.559e-5
0.181, -8.623e-5
0.180, -8.685e-5
0.179, -8.745e-5
0.178, -8.802e-5
0.177, -8.855e-5
0.176, -8.903e-5
0.175, -8.947e-5
0.174, -8.988e-5
0.173, -9.025e-5
0.172, -9.059e-5
0.171, -9.091e-5
0.170, -9.121e-5
0.169, -9.148e-5
0.168, -9.174e-5
0.167, -9.197e-5
0.166, -9.217e-5
0.165, -9.234e-5
0.164, -9.247e-5
0.163, -9.257e-5
0.162, -9.264e-5
0.161, -9.269e-5
0.160, -9.271e-5
0.159, -9.270e-5
0.158, -9.267e-5
0.157, -9.263e-5
0.156, -9.257e-5
0.155, -9.249e-5
0.154, -9.240e-5
0.153, -9.228e-5
0.152, -9.213e-5
0.151, -9.196e-5
0.150, -9.177e-5
0.149, -9.155e-5
0.148, -9.133e-5
0.147, -9.108e-5
0.146, -9.082e-5
0.145, -9.055e-5
0.144, -9.027e-5
0.143, -8.999e-5
0.142, -8.970e-5
0.141, -8.939e-5
0.140, -8.907e-5
0.139, -8.873e-5
0.138, -8.838e-5
0.137, -8.802e-5
0.136, -8.766e-5
0.135, -8.728e-5
0.134, -8.690e-5
0.133, -8.651e-5
0.132, -8.613e-5
0.131, -8.574e-5
0.130, -8.535e-5
0.129, -8.496e-5
0.128, -8.456e-5
0.127, -8.416e-5
0.126, -8.375e-5
0.125, -8.333e-5
0.124, -8.290e-5
0.123, -8.248e-5
0.122, -8.206e-5
0.121, -8.163e-5
0.120, -8.121e-5
0.119, -8.079e-5
0.118, -8.037e-5
0.117, -7.995e-5
0.116, -7.953e-5
0.115, -7.912e-5
0.114, -7.870e-5
0.113, -7.829e-5
0.112, -7.787e-5
0.111, -7.746e-5
0.110, -7.705e-5
0.109, -7.664e-5
0.108, -7.623e-5
0.107, -7.583e-5
0.106, -7.543e-5
0.105, -7.503e-5
0.104, -7.463e-5
0.103, -7.424e-5
0.102, -7.386e-5
0.101, -7.347e-5
0.100, -7.309e-5
0.099, -7.271e-5
0.098, -7.233e-5
0.097, -7.195e-5
0.096, -7.158e-5
0.095, -7.121e-5
0.094, -7.084e-5
0.093, -7.048e-5
0.092, -7.013e-5
0.091, -6.978e-5
0.090, -6.944e-5
0.089, -6.909e-5
0.088, -6.874e-5
0.087, -6.840e-5
0.086, -6.807e-5
0.085, -6.774e-5
0.084, -6.740e-5
0.083, -6.708e-5
0.082, -6.675e-5
0.081, -6.644e-5
0.080, -6.612e-5
0.079, -6.582e-5
0.078, -6.551e-5
0.077, -6.520e-5
0.076, -6.490e-5
0.075, -6.460e-5
0.074, -6.431e-5
0.073, -6.401e-5
0.072, -6.372e-5
0.071, -6.344e-5
0.070, -6.315e-5
0.069, -6.288e-5
0.068, -6.260e-5
0.067, -6.233e-5
0.066, -6.206e-5
0.065, -6.180e-5
0.064, -6.154e-5
0.063, -6.128e-5
0.062, -6.102e-5
0.061, -6.077e-5
0.060, -6.051e-5
0.059, -6.026e-5
0.058, -6.002e-5
0.057, -5.978e-5
0.056, -5.954e-5
0.055, -5.930e-5
0.054, -5.907e-5
0.053, -5.884e-5
0.052, -5.861e-5
0.051, -5.838e-5
0.050, -5.816e-5
0.049, -5.794e-5
0.048, -5.773e-5
0.047, -5.751e-5
0.046, -5.729e-5
0.045, -5.708e-5
0.044, -5.687e-5
0.043, -5.666e-5
0.042, -5.646e-5
0.041, -5.625e-5
0.040, -5.606e-5
0.039, -5.586e-5
0.038, -5.566e-5
0.037, -5.547e-5
0.036, -5.528e-5
0.035, -5.509e-5
0.034, -5.490e-5
0.033, -5.471e-5
0.032, -5.452e-5
0.031, -5.434e-5
0.030, -5.417e-5
0.029, -5.399e-5
0.028, -5.382e-5
0.027, -5.364e-5
0.026, -5.347e-5
0.025, -5.330e-5
0.024, -5.313e-5
0.023, -5.296e-5
0.022, -5.280e-5
0.021, -5.263e-5
0.020, -5.247e-5
0.019, -5.231e-5
0.018, -5.215e-5
0.017, -5.199e-5
0.016, -5.184e-5
0.015, -5.168e-5
0.014, -5.153e-5
0.013, -5.138e-5
0.012, -5.122e-5
0.011, -5.108e-5
0.010, -5.093e-5
0.009, -5.078e-5
0.008, -5.064e-5
0.007, -5.049e-5
0.006, -5.035e-5
0.005, -5.021e-5
0.004, -5.007e-5
0.003, -4.993e-5
0.002, -4.979e-5
0.001, -4.966e-5
0.000, -4.953e-5
-0.001, -4.939e-5
-0.002, -4.926e-5
-0.003, -4.913e-5
-0.004, -4.900e-5
-0.005, -4.887e-5
-0.006, -4.874e-5
-0.007, -4.861e-5
-0.008, -4.849e-5
-0.009, -4.836e-5
-0.010, -4.824e-5
-0.011, -4.812e-5
-0.012, -4.800e-5
-0.013, -4.788e-5
-0.014, -4.776e-5
-0.015, -4.764e-5
-0.016, -4.752e-5
-0.017, -4.740e-5
-0.018, -4.729e-5
-0.019, -4.717e-5
-0.020, -4.706e-5
-0.021, -4.695e-5
-0.022, -4.683e-5
-0.023, -4.672e-5
-0.024, -4.661e-5
-0.025, -4.650e-5
-0.026, -4.640e-5
-0.027, -4.630e-5
-0.028, -4.619e-5
-0.029, -4.608e-5
-0.030, -4.598e-5
-0.031, -4.587e-5
-0.032, -4.577e-5
-0.033, -4.567e-5
-0.034, -4.556e-5
-0.035, -4.546e-5
-0.036, -4.536e-5
-0.037, -4.526e-5
-0.038, -4.516e-5
-0.039, -4.506e-5
-0.040, -4.497e-5
-0.041, -4.487e-5
-0.042, -4.477e-5
-0.043, -4.468e-5
-0.044, -4.458e-5
-0.045, -4.449e-5
-0.046, -4.440e-5
-0.047, -4.431e-5
-0.048, -4.422e-5
-0.049, -4.413e-5
-0.050, -4.404e-5
-0.051, -4.395e-5
-0.052, -4.386e-5
-0.053, -4.377e-5
-0.054, -4.368e-5
-0.055, -4.359e-5
-0.056, -4.350e-5
-0.057, -4.341e-5
-0.058, -4.333e-5
-0.059, -4.324e-5
-0.060, -4.316e-5
-0.061, -4.307e-5
-0.062, -4.299e-5
-0.063, -4.291e-5
-0.064, -4.283e-5
-0.065, -4.274e-5
-0.066, -4.266e-5
-0.067, -4.258e-5
-0.068, -4.250e-5
-0.069, -4.242e-5
-0.070, -4.235e-5
-0.071, -4.227e-5
-0.072, -4.219e-5
-0.073, -4.211e-5
-0.074, -4.203e-5
-0.075, -4.196e-5
-0.076, -4.188e-5
-0.077, -4.181e-5
-0.078, -4.173e-5
-0.079, -4.165e-5
-0.080, -4.158e-5
-0.081, -4.150e-5
-0.082, -4.143e-5
-0.083, -4.136e-5
-0.084, -4.128e-5
-0.085, -4.121e-5
-0.086, -4.114e-5
-0.087, -4.107e-5
-0.088, -4.100e-5
-0.089, -4.093e-5
-0.090, -4.086e-5
-0.091, -4.079e-5
-0.092, -4.072e-5
-0.093, -4.065e-5
-0.094, -4.058e-5
-0.095, -4.051e-5
-0.096, -4.045e-5
-0.097, -4.038e-5
-0.098, -4.031e-5
-0.099, -4.025e-5
-0.100, -4.018e-5
-0.101, -4.011e-5
-0.102, -4.005e-5
-0.103, -3.999e-5
-0.104, -3.992e-5
-0.105, -3.986e-5
-0.106, -3.979e-5
-0.107, -3.972e-5
-0.108, -3.966e-5
-0.109, -3.960e-5
-0.110, -3.953e-5
-0.111, -3.947e-5
-0.112, -3.941e-5
-0.113, -3.935e-5
-0.114, -3.929e-5
-0.115, -3.923e-5
-0.116, -3.916e-5
-0.117, -3.910e-5
-0.118, -3.904e-5
-0.119, -3.899e-5
-0.120, -3.893e-5
-0.121, -3.887e-5
-0.122, -3.880e-5
-0.123, -3.874e-5
-0.124, -3.868e-5
-0.125, -3.863e-5
-0.126, -3.857e-5
-0.127, -3.852e-5
-0.128, -3.847e-5
-0.129, -3.842e-5
-0.130, -3.836e-5
-0.131, -3.830e-5
-0.132, -3.824e-5
-0.133, -3.819e-5
-0.134, -3.813e-5
-0.135, -3.808e-5
-0.136, -3.802e-5
-0.137, -3.797e-5
-0.138, -3.791e-5
-0.139, -3.786e-5
-0.140, -3.780e-5
-0.141, -3.775e-5
-0.142, -3.770e-5
-0.143, -3.765e-5
-0.144, -3.760e-5
-0.145, -3.755e-5
-0.146, -3.750e-5
-0.147, -3.744e-5
-0.148, -3.739e-5
-0.149, -3.734e-5
-0.150, -3.729e-5
-0.151, -3.723e-5
-0.152, -3.718e-5
-0.153, -3.713e-5
-0.154, -3.708e-5
-0.155, -3.704e-5
-0.156, -3.699e-5
-0.157, -3.694e-5
-0.158, -3.689e-5
-0.159, -3.684e-5
-0.160, -3.679e-5
-0.161, -3.674e-5
-0.162, -3.669e-5
-0.163, -3.664e-5
-0.164, -3.660e-5
-0.165, -3.655e-5
-0.166, -3.651e-5
-0.167, -3.646e-5
-0.168, -3.642e-5
-0.169, -3.637e-5
-0.170, -3.632e-5
-0.171, -3.627e-5
-0.172, -3.623e-5
-0.173, -3.618e-5
-0.174, -3.614e-5
-0.175, -3.609e-5
-0.176, -3.605e-5
-0.177, -3.601e-5
-0.178, -3.596e-5
-0.179, -3.592e-5
-0.180, -3.587e-5
-0.181, -3.583e-5
-0.182, -3.578e-5
-0.183, -3.574e-5
-0.184, -3.569e-5
-0.185, -3.565e-5
-0.186, -3.561e-5
-0.187, -3.557e-5
-0.188, -3.553e-5
-0.189, -3.549e-5
-0.190, -3.544e-5
-0.191, -3.540e-5
-0.192, -3.536e-5
-0.193, -3.532e-5
-0.194, -3.528e-5
-0.195, -3.524e-5
-0.196, -3.520e-5
-0.197, -3.515e-5
-0.198, -3.511e-5
-0.199, -3.507e-5
-0.200, -3.495e-5
-0.199, -3.483e-5
-0.198, -3.472e-5
-0.197, -3.463e-5
-0.196, -3.457e-5
-0.195, -3.452e-5
-0.194, -3.447e-5
-0.193, -3.441e-5
-0.192, -3.435e-5
-0.191, -3.429e-5
-0.190, -3.424e-5
-0.189, -3.419e-5
-0.188, -3.415e-5
-0.187, -3.410e-5
-0.186, -3.406e-5
-0.185, -3.401e-5
-0.184, -3.396e-5
-0.183, -3.391e-5
-0.182, -3.386e-5
-0.181, -3.382e-5
-0.180, -3.377e-5
-0.179, -3.372e-5
-0.178, -3.368e-5
-0.177, -3.364e-5
-0.176, -3.360e-5
-0.175, -3.356e-5
-0.174, -3.351e-5
-0.173, -3.347e-5
-0.172, -3.342e-5
-0.171, -3.338e-5
-0.170, -3.334e-5
-0.169, -3.330e-5
-0.168, -3.325e-5
-0.167, -3.321e-5
-0.166, -3.317e-5
-0.165, -3.313e-5
-0.164, -3.309e-5
-0.163, -3.305e-5
-0.162, -3.301e-5
-0.161, -3.297e-5
-0.160, -3.292e-5
-0.159, -3.289e-5
-0.158, -3.285e-5
-0.157, -3.280e-5
-0.156, -3.276e-5
-0.155, -3.272e-5
-0.154, -3.268e-5
-0.153, -3.265e-5
-0.152, -3.262e-5
-0.151, -3.258e-5
-0.150, -3.255e-5
-0.149, -3.251e-5
-0.148, -3.247e-5
-0.147, -3.243e-5
-0.146, -3.239e-5
-0.145, -3.236e-5
-0.144, -3.232e-5
-0.143, -3.228e-5
-0.142, -3.224e-5
-0.141, -3.220e-5
-0.140, -3.217e-5
-0.139, -3.213e-5
-0.138, -3.210e-5
-0.137, -3.206e-5
-0.136, -3.202e-5
-0.135, -3.199e-5
-0.134, -3.195e-5
-0.133, -3.191e-5
-0.132, -3.188e-5
-0.131, -3.184e-5
-0.130, -3.180e-5
-0.129, -3.177e-5
-0.128, -3.173e-5
-0.127, -3.170e-5
-0.126, -3.167e-5
-0.125, -3.164e-5
-0.124, -3.161e-5
-0.123, -3.157e-5
-0.122, -3.153e-5
-0.121, -3.149e-5
-0.120, -3.146e-5
-0.119, -3.143e-5
-0.118, -3.140e-5
-0.117, -3.136e-5
-0.116, -3.133e-5
-0.115, -3.129e-5
-0.114, -3.126e-5
-0.113, -3.122e-5
-0.112, -3.119e-5
-0.111, -3.116e-5
-0.110, -3.113e-5
-0.109, -3.110e-5
-0.108, -3.106e-5
-0.107, -3.103e-5
-0.106, -3.099e-5
-0.105, -3.096e-5
-0.104, -3.093e-5
-0.103, -3.090e-5
-0.102, -3.087e-5
-0.101, -3.084e-5
-0.100, -3.080e-5
-0.099, -3.077e-5
-0.098, -3.074e-5
-0.097, -3.071e-5
-0.096, -3.068e-5
-0.095, -3.066e-5
-0.094, -3.063e-5
-0.093, -3.060e-5
-0.092, -3.056e-5
-0.091, -3.053e-5
-0.090, -3.049e-5
-0.089, -3.046e-5
-0.088, -3.043e-5
-0.087, -3.040e-5
-0.086, -3.037e-5
-0.085, -3.034e-5
-0.084, -3.031e-5
-0.083, -3.027e-5
-0.082, -3.024e-5
-0.081, -3.022e-5
-0.080, -3.019e-5
-0.079, -3.016e-5
-0.078, -3.013e-5
-0.077, -3.010e-5
-0.076, -3.007e-5
-0.075, -3.004e-5
-0.074, -3.001e-5
-0.073, -2.998e-5
-0.072, -2.995e-5
-0.071, -2.992e-5
-0.070, -2.989e-5
-0.069, -2.986e-5
-0.068, -2.983e-5
-0.067, -2.979e-5
-0.066, -2.977e-5
-0.065, -2.974e-5
-0.064, -2.971e-5
-0.063, -2.969e-5
-0.062, -2.966e-5
-0.061, -2.963e-5
-0.060, -2.959e-5
-0.059, -2.956e-5
-0.058, -2.953e-5
-0.057, -2.950e-5
-0.056, -2.947e-5
-0.055, -2.945e-5
-0.054, -2.942e-5
-0.053, -2.939e-5
-0.052, -2.936e-5
-0.051, -2.933e-5
-0.050, -2.930e-5
-0.049, -2.927e-5
-0.048, -2.924e-5
-0.047, -2.922e-5
-0.046, -2.919e-5
-0.045, -2.916e-5
-0.044, -2.913e-5
-0.043, -2.910e-5
-0.042, -2.907e-5
-0.041, -2.904e-5
-0.040, -2.901e-5
-0.039, -2.898e-5
-0.038, -2.895e-5
-0.037, -2.892e-5
-0.036, -2.890e-5
-0.035, -2.887e-5
-0.034, -2.884e-5
-0.033, -2.881e-5
-0.032, -2.878e-5
-0.031, -2.875e-5
-0.030, -2.873e-5
-0.029, -2.870e-5
-0.028, -2.868e-5
-0.027, -2.865e-5
-0.026, -2.862e-5
-0.025, -2.859e-5
-0.024, -2.856e-5
-0.023, -2.853e-5
-0.022, -2.850e-5
-0.021, -2.848e-5
-0.020, -2.845e-5
-0.019, -2.842e-5
-0.018, -2.839e-5
-0.017, -2.836e-5
-0.016, -2.833e-5
-0.015, -2.830e-5
-0.014, -2.827e-5
-0.013, -2.824e-5
-0.012, -2.822e-5
-0.011, -2.819e-5
-0.010, -2.816e-5
-0.009, -2.812e-5
-0.008, -2.809e-5
-0.007, -2.806e-5
-0.006, -2.803e-5
-0.005, -2.800e-5
-0.004, -2.798e-5
-0.003, -2.794e-5
-0.002, -2.791e-5
-0.001, -2.788e-5
-0.000, -2.784e-5
0.001, -2.781e-5
0.002, -2.778e-5
0.003, -2.776e-5
0.004, -2.773e-5
0.005, -2.770e-5
0.006, -2.767e-5
0.007, -2.764e-5
0.008, -2.761e-5
0.009, -2.757e-5
0.010, -2.754e-5
0.011, -2.751e-5
0.012, -2.748e-5
0.013, -2.744e-5
0.014, -2.741e-5
0.015, -2.737e-5
0.016, -2.734e-5
0.017, -2.731e-5
0.018, -2.728e-5
0.019, -2.725e-5
0.020, -2.721e-5
0.021, -2.717e-5
0.022, -2.714e-5
0.023, -2.710e-5
0.024, -2.706e-5
0.025, -2.702e-5
0.026, -2.699e-5
0.027, -2.695e-5
0.028, -2.691e-5
0.029, -2.688e-5
0.030, -2.684e-5
0.031, -2.681e-5
0.032, -2.678e-5
0.033, -2.674e-5
0.034, -2.671e-5
0.035, -2.666e-5
0.036, -2.661e-5
0.037, -2.657e-5
0.038, -2.652e-5
0.039, -2.648e-5
0.040, -2.644e-5
0.041, -2.639e-5
0.042, -2.635e-5
0.043, -2.630e-5
0.044, -2.626e-5
0.045, -2.621e-5
0.046, -2.616e-5
0.047, -2.611e-5
0.048, -2.606e-5
0.049, -2.601e-5
0.050, -2.596e-5
0.051, -2.590e-5
0.052, -2.585e-5
0.053, -2.580e-5
0.054, -2.574e-5
0.055, -2.569e-5
0.056, -2.563e-5
0.057, -2.556e-5
0.058, -2.550e-5
0.059, -2.544e-5
0.060, -2.538e-5
0.061, -2.532e-5
0.062, -2.525e-5
0.063, -2.518e-5
0.064, -2.511e-5
0.065, -2.504e-5
0.066, -2.497e-5
0.067, -2.489e-5
0.068, -2.482e-5
0.069, -2.475e-5
0.070, -2.467e-5
0.071, -2.459e-5
0.072, -2.450e-5
0.073, -2.442e-5
0.074, -2.433e-5
0.075, -2.424e-5
0.076, -2.414e-5
0.077, -2.404e-5
0.078, -2.395e-5
0.079, -2.384e-5
0.080, -2.374e-5
0.081, -2.364e-5
0.082, -2.353e-5
0.083, -2.342e-5
0.084, -2.330e-5
0.085, -2.318e-5
0.086, -2.306e-5
0.087, -2.294e-5
0.088, -2.282e-5
0.089, -2.269e-5
0.090, -2.255e-5
0.091, -2.241e-5
0.092, -2.226e-5
0.093, -2.212e-5
0.094, -2.196e-5
0.095, -2.181e-5
0.096, -2.164e-5
0.097, -2.148e-5
0.098, -2.130e-5
0.099, -2.112e-5
0.100, -2.094e-5
0.101, -2.075e-5
0.102, -2.056e-5
0.103, -2.036e-5
0.104, -2.015e-5
0.105, -1.994e-5
0.106, -1.972e-5
0.107, -1.949e-5
0.108, -1.926e-5
0.109, -1.902e-5
0.110, -1.878e-5
0.111, -1.852e-5
0.112, -1.826e-5
0.113, -1.798e-5
0.114, -1.770e-5
0.115, -1.741e-5
0.116, -1.712e-5
0.117, -1.681e-5
0.118, -1.650e-5
0.119, -1.618e-5
0.120, -1.584e-5
0.121, -1.550e-5
0.122, -1.515e-5
0.123, -1.479e-5
0.124, -1.442e-5
0.125, -1.404e-5
0.126, -1.364e-5
0.127, -1.322e-5
0.128, -1.279e-5
0.129, -1.235e-5
0.130, -1.190e-5
0.131, -1.144e-5
0.132, -1.098e-5
0.133, -1.050e-5
0.134, -1.001e-5
0.135, -9.505e-6
0.136, -8.984e-6
0.137, -8.448e-6
0.138, -7.897e-6
0.139, -7.329e-6
0.140, -6.747e-6
0.141, -6.148e-6
0.142, -5.530e-6
0.143, -4.894e-6
0.144, -4.244e-6
0.145, -3.585e-6
0.146, -2.919e-6
0.147, -2.241e-6
0.148, -1.546e-6
0.149, -8.290e-7
0.150, -9.038e-8
0.151, 6.681e-7
0.152, 1.449e-6
0.153, 2.250e-6
0.154, 3.069e-6
0.155, 3.899e-6
0.156, 4.740e-6
0.157, 5.589e-6
0.158, 6.452e-6
0.159, 7.327e-6
0.160, 8.215e-6
0.161, 9.116e-6
0.162, 1.004e-5
0.163, 1.098e-5
0.164, 1.194e-5
0.165, 1.292e-5
0.166, 1.393e-5
0.167, 1.494e-5
0.168, 1.597e-5
0.169, 1.700e-5
0.170, 1.802e-5
0.171, 1.906e-5
0.172, 2.011e-5
0.173, 2.117e-5
0.174, 2.225e-5
0.175, 2.333e-5
0.176, 2.442e-5
0.177, 2.553e-5
0.178, 2.665e-5
0.179, 2.779e-5
0.180, 2.894e-5
0.181, 3.008e-5
0.182, 3.121e-5
0.183, 3.232e-5
0.184, 3.344e-5
0.185, 3.454e-5
0.186, 3.565e-5
0.187, 3.677e-5
0.188, 3.790e-5
0.189, 3.902e-5
0.190, 4.014e-5
0.191, 4.124e-5
0.192, 4.234e-5
0.193, 4.342e-5
0.194, 4.451e-5
0.195, 4.558e-5
0.196, 4.664e-5
0.197, 4.768e-5
0.198, 4.870e-5
0.199, 4.968e-5
0.200, 5.067e-5
0.201, 5.164e-5
0.202, 5.259e-5
0.203, 5.351e-5
0.204, 5.440e-5
0.205, 5.524e-5
0.206, 5.607e-5
0.207, 5.691e-5
0.208, 5.774e-5
0.209, 5.856e-5
0.210, 5.934e-5
0.211, 6.008e-5
0.212, 6.079e-5
0.213, 6.148e-5
0.214, 6.214e-5
0.215, 6.277e-5
0.216, 6.338e-5
0.217, 6.397e-5
0.218, 6.452e-5
0.219, 6.505e-5
0.220, 6.554e-5
0.221, 6.599e-5
0.222, 6.641e-5
0.223, 6.679e-5
0.224, 6.713e-5
0.225, 6.745e-5
0.226, 6.775e-5
0.227, 6.803e-5
0.228, 6.829e-5
0.229, 6.853e-5
0.230, 6.874e-5
0.231, 6.892e-5
0.232, 6.906e-5
0.233, 6.917e-5
0.234, 6.924e-5
0.235, 6.928e-5
0.236, 6.930e-5
0.237, 6.930e-5
0.238, 6.926e-5
0.239, 6.922e-5
0.240, 6.915e-5
0.241, 6.906e-5
0.242, 6.896e-5
0.243, 6.883e-5
0.244, 6.868e-5
0.245, 6.852e-5
0.246, 6.833e-5
0.247, 6.812e-5
0.248, 6.789e-5
0.249, 6.764e-5
0.250, 6.738e-5
0.251, 6.711e-5
0.252, 6.683e-5
0.253, 6.654e-5
0.254, 6.624e-5
0.255, 6.593e-5
0.256, 6.561e-5
0.257, 6.528e-5
0.258, 6.494e-5
0.259, 6.458e-5
0.260, 6.421e-5
0.261, 6.383e-5
0.262, 6.345e-5
0.263, 6.306e-5
0.264, 6.267e-5
0.265, 6.227e-5
0.266, 6.187e-5
0.267, 6.147e-5
0.268, 6.107e-5
0.269, 6.066e-5
0.270, 6.025e-5
0.271, 5.983e-5
0.272, 5.941e-5
0.273, 5.898e-5
0.274, 5.856e-5
0.275, 5.813e-5
0.276, 5.771e-5
0.277, 5.729e-5
0.278, 5.687e-5
0.279, 5.645e-5
0.280, 5.603e-5
0.281, 5.562e-5
0.282, 5.521e-5
0.283, 5.480e-5
0.284, 5.438e-5
0.285, 5.396e-5
0.286, 5.355e-5
0.287, 5.314e-5
0.288, 5.273e-5
0.289, 5.232e-5
0.290, 5.192e-5
0.291, 5.152e-5
0.292, 5.112e-5
0.293, 5.073e-5
0.294, 5.034e-5
0.295, 4.996e-5
0.296, 4.958e-5
0.297, 4.920e-5
0.298, 4.882e-5
0.299, 4.844e-5
0.300, 4.807e-5
0.301, 4.770e-5
0.302, 4.734e-5
0.303, 4.698e-5
0.304, 4.662e-5
0.305, 4.627e-5
0.306, 4.592e-5
0.307, 4.558e-5
0.308, 4.524e-5
0.309, 4.490e-5
0.310, 4.457e-5
0.311, 4.423e-5
0.312, 4.391e-5
0.313, 4.358e-5
0.314, 4.326e-5
0.315, 4.294e-5
0.316, 4.263e-5
0.317, 4.232e-5
0.318, 4.201e-5
0.319, 4.171e-5
0.320, 4.142e-5
0.321, 4.112e-5
0.322, 4.083e-5
0.323, 4.054e-5
0.324, 4.026e-5
0.325, 3.998e-5
0.326, 3.970e-5
0.327, 3.943e-5
0.328, 3.916e-5
0.329, 3.889e-5
0.330, 3.862e-5
0.331, 3.836e-5
0.332, 3.810e-5
0.333, 3.785e-5
0.334, 3.760e-5
0.335, 3.735e-5
0.336, 3.710e-5
0.337, 3.686e-5
0.338, 3.661e-5
0.339, 3.638e-5
0.340, 3.614e-5
0.341, 3.591e-5
0.342, 3.568e-5
0.343, 3.546e-5
0.344, 3.523e-5
0.345, 3.501e-5
0.346, 3.479e-5
0.347, 3.458e-5
0.348, 3.436e-5
0.349, 3.415e-5
0.350, 3.395e-5
0.351, 3.374e-5
0.352, 3.354e-5
0.353, 3.334e-5
0.354, 3.314e-5
0.355, 3.294e-5
0.356, 3.274e-5
0.357, 3.255e-5
0.358, 3.236e-5
0.359, 3.217e-5
0.360, 3.199e-5
0.361, 3.181e-5
0.362, 3.163e-5
0.363, 3.145e-5
0.364, 3.127e-5
0.365, 3.109e-5
0.366, 3.092e-5
0.367, 3.075e-5
0.368, 3.058e-5
0.369, 3.041e-5
0.370, 3.024e-5
0.371, 3.008e-5
0.372, 2.992e-5
0.373, 2.976e-5
0.374, 2.960e-5
0.375, 2.944e-5
0.376, 2.928e-5
0.377, 2.913e-5
0.378, 2.898e-5
0.379, 2.883e-5
0.380, 2.868e-5
0.381, 2.853e-5
0.382, 2.839e-5
0.383, 2.824e-5
0.384, 2.810e-5
0.385, 2.796e-5
0.386, 2.782e-5
0.387, 2.768e-5
0.388, 2.754e-5
0.389, 2.741e-5
0.390, 2.727e-5
0.391, 2.714e-5
0.392, 2.701e-5
0.393, 2.688e-5
0.394, 2.675e-5
0.395, 2.662e-5
0.396, 2.649e-5
0.397, 2.637e-5
0.398, 2.624e-5
0.399, 2.612e-5
0.400, 2.600e-5
0.401, 2.588e-5
0.402, 2.576e-5
0.403, 2.564e-5
0.404, 2.553e-5
0.405, 2.541e-5
0.406, 2.529e-5
0.407, 2.518e-5
0.408, 2.507e-5
0.409, 2.496e-5
0.410, 2.485e-5
0.411, 2.474e-5
0.412, 2.463e-5
0.413, 2.452e-5
0.414, 2.441e-5
0.415, 2.430e-5
0.416, 2.420e-5
0.417, 2.410e-5
0.418, 2.400e-5
0.419, 2.390e-5
0.420, 2.380e-5
0.421, 2.370e-5
0.422, 2.360e-5
0.423, 2.350e-5
0.424, 2.340e-5
0.425, 2.330e-5
0.426, 2.321e-5
0.427, 2.311e-5
0.428, 2.302e-5
0.429, 2.292e-5
0.430, 2.283e-5
0.431, 2.274e-5
0.432, 2.265e-5
0.433, 2.256e-5
0.434, 2.247e-5
0.435, 2.238e-5
0.436, 2.229e-5
0.437, 2.220e-5
0.438, 2.212e-5
0.439, 2.203e-5
0.440, 2.195e-5
0.441, 2.186e-5
0.442, 2.178e-5
0.443, 2.169e-5
0.444, 2.161e-5
0.445, 2.153e-5
0.446, 2.145e-5
0.447, 2.137e-5
0.448, 2.128e-5
0.449, 2.120e-5
0.450, 2.113e-5
0.451, 2.105e-5
0.452, 2.097e-5
0.453, 2.089e-5
0.454, 2.082e-5
0.455, 2.074e-5
0.456, 2.066e-5
0.457, 2.059e-5
0.458, 2.051e-5
0.459, 2.044e-5
0.460, 2.036e-5
0.461, 2.029e-5
0.462, 2.022e-5
0.463, 2.015e-5
0.464, 2.009e-5
0.465, 2.002e-5
0.466, 1.995e-5
0.467, 1.988e-5
0.468, 1.981e-5
0.469, 1.974e-5
0.470, 1.967e-5
0.471, 1.960e-5
0.472, 1.954e-5
0.473, 1.947e-5
0.474, 1.940e-5
0.475, 1.934e-5
0.476, 1.927e-5
0.477, 1.921e-5
0.478, 1.915e-5
0.479, 1.908e-5
0.480, 1.902e-5
0.481, 1.896e-5
0.482, 1.889e-5
0.483, 1.883e-5
0.484, 1.877e-5
0.485, 1.871e-5
0.486, 1.865e-5
0.487, 1.859e-5
0.488, 1.853e-5
0.489, 1.847e-5
0.490, 1.841e-5
0.491, 1.835e-5
0.492, 1.829e-5
0.493, 1.824e-5
0.494, 1.818e-5
0.495, 1.813e-5
0.496, 1.807e-5
0.497, 1.802e-5
0.498, 1.796e-5
0.499, 1.790e-5
