Pomiar CV tla odtlenionego
Potential/V, Current/A
0.500, 1.528e-7
0.499, 1.320e-7
0.498, 1.153e-7
0.497, 1.027e-7
0.496, 9.555e-8
0.495, 9.118e-8
0.494, 8.762e-8
0.493, 8.369e-8
0.492, 7.984e-8
0.491, 7.653e-8
0.490, 7.323e-8
0.489, 7.030e-8
0.488, 6.725e-8
0.487, 6.468e-8
0.486, 6.213e-8
0.485, 5.988e-8
0.484, 5.759e-8
0.483, 5.566e-8
0.482, 5.352e-8
0.481, 5.181e-8
0.480, 4.999e-8
0.479, 4.827e-8
0.478, 4.650e-8
0.477, 4.494e-8
0.476, 4.313e-8
0.475, 4.157e-8
0.474, 3.992e-8
0.473, 3.864e-8
0.472, 3.742e-8
0.471, 3.647e-8
0.470, 3.526e-8
0.469, 3.413e-8
0.468, 3.294e-8
0.467, 3.213e-8
0.466, 3.119e-8
0.465, 3.046e-8
0.464, 2.942e-8
0.463, 2.839e-8
0.462, 2.721e-8
0.461, 2.626e-8
0.460, 2.524e-8
0.459, 2.459e-8
0.458, 2.393e-8
0.457, 2.347e-8
0.456, 2.282e-8
0.455, 2.226e-8
0.454, 2.154e-8
0.453, 2.094e-8
0.452, 2.021e-8
0.451, 1.966e-8
0.450, 1.895e-8
0.449, 1.835e-8
0.448, 1.767e-8
0.447, 1.710e-8
0.446, 1.645e-8
0.445, 1.608e-8
0.444, 1.565e-8
0.443, 1.528e-8
0.442, 1.475e-8
0.441, 1.426e-8
0.440, 1.362e-8
0.439, 1.314e-8
0.438, 1.254e-8
0.437, 1.200e-8
0.436, 1.140e-8
0.435, 1.110e-8
0.434, 1.080e-8
0.433, 1.066e-8
0.432, 1.039e-8
0.431, 1.012e-8
0.430, 9.663e-9
0.429, 9.375e-9
0.428, 8.883e-9
0.427, 8.443e-9
0.426, 7.852e-9
0.425, 7.369e-9
0.424, 6.719e-9
0.423, 6.313e-9
0.422, 5.917e-9
0.421, 5.704e-9
0.420, 5.433e-9
0.419, 5.380e-9
0.418, 5.032e-9
0.417, 4.772e-9
0.416, 4.349e-9
0.415, 4.023e-9
0.414, 3.597e-9
0.413, 3.361e-9
0.412, 2.794e-9
0.411, 2.242e-9
0.410, 1.513e-9
0.409, 1.159e-9
0.408, 7.681e-10
0.407, 6.317e-10
0.406, 4.685e-10
0.405, 4.545e-10
0.404, 3.678e-10
0.403, 5.577e-10
0.402, 3.374e-10
0.401, 2.224e-11
0.400, -4.735e-10
0.399, -9.519e-10
0.398, -1.483e-9
0.397, -1.737e-9
0.396, -2.095e-9
0.395, -2.303e-9
0.394, -2.560e-9
0.393, -2.673e-9
0.392, -2.874e-9
0.391, -2.933e-9
0.390, -3.151e-9
0.389, -3.312e-9
0.388, -3.595e-9
0.387, -3.766e-9
0.386, -4.197e-9
0.385, -4.562e-9
0.384, -5.074e-9
0.383, -5.398e-9
0.382, -5.707e-9
0.381, -5.777e-9
0.380, -6.024e-9
0.379, -6.051e-9
0.378, -6.126e-9
0.377, -6.075e-9
0.376, -6.222e-9
0.375, -6.351e-9
0.374, -6.741e-9
0.373, -7.021e-9
0.372, -7.413e-9
0.371, -7.617e-9
0.370, -7.891e-9
0.369, -7.974e-9
0.368, -8.087e-9
0.367, -8.131e-9
0.366, -8.369e-9
0.365, -8.466e-9
0.364, -8.745e-9
0.363, -8.856e-9
0.362, -9.081e-9
0.361, -9.288e-9
0.360, -9.695e-9
0.359, -9.921e-9
0.358, -1.021e-8
0.357, -1.032e-8
0.356, -1.051e-8
0.355, -1.052e-8
0.354, -1.074e-8
0.353, -1.081e-8
0.352, -1.095e-8
0.351, -1.105e-8
0.350, -1.120e-8
0.349, -1.115e-8
0.348, -1.146e-8
0.347, -1.170e-8
0.346, -1.216e-8
0.345, -1.245e-8
0.344, -1.273e-8
0.343, -1.269e-8
0.342, -1.265e-8
0.341, -1.248e-8
0.340, -1.256e-8
0.339, -1.254e-8
0.338, -1.280e-8
0.337, -1.295e-8
0.336, -1.312e-8
0.335, -1.335e-8
0.334, -1.376e-8
0.333, -1.398e-8
0.332, -1.423e-8
0.331, -1.417e-8
0.330, -1.408e-8
0.329, -1.393e-8
0.328, -1.396e-8
0.327, -1.393e-8
0.326, -1.411e-8
0.325, -1.421e-8
0.324, -1.446e-8
0.323, -1.457e-8
0.322, -1.485e-8
0.321, -1.509e-8
0.320, -1.547e-8
0.319, -1.564e-8
0.318, -1.579e-8
0.317, -1.571e-8
0.316, -1.574e-8
0.315, -1.579e-8
0.314, -1.607e-8
0.313, -1.612e-8
0.312, -1.625e-8
0.311, -1.618e-8
0.310, -1.614e-8
0.309, -1.619e-8
0.308, -1.651e-8
0.307, -1.670e-8
0.306, -1.711e-8
0.305, -1.718e-8
0.304, -1.705e-8
0.303, -1.676e-8
0.302, -1.654e-8
0.301, -1.639e-8
0.300, -1.674e-8
0.299, -1.705e-8
0.298, -1.747e-8
0.297, -1.777e-8
0.296, -1.795e-8
0.295, -1.799e-8
0.294, -1.804e-8
0.293, -1.796e-8
0.292, -1.806e-8
0.291, -1.818e-8
0.290, -1.843e-8
0.289, -1.864e-8
0.288, -1.881e-8
0.287, -1.884e-8
0.286, -1.888e-8
0.285, -1.876e-8
0.284, -1.885e-8
0.283, -1.908e-8
0.282, -1.955e-8
0.281, -1.991e-8
0.280, -2.023e-8
0.279, -2.022e-8
0.278, -2.021e-8
0.277, -2.014e-8
0.276, -2.013e-8
0.275, -1.996e-8
0.274, -1.997e-8
0.273, -2.005e-8
0.272, -2.045e-8
0.271, -2.089e-8
0.270, -2.119e-8
0.269, -2.118e-8
0.268, -2.105e-8
0.267, -2.094e-8
0.266, -2.114e-8
0.265, -2.135e-8
0.264, -2.155e-8
0.263, -2.170e-8
0.262, -2.190e-8
0.261, -2.220e-8
0.260, -2.267e-8
0.259, -2.293e-8
0.258, -2.325e-8
0.257, -2.348e-8
0.256, -2.374e-8
0.255, -2.389e-8
0.254, -2.391e-8
0.253, -2.355e-8
0.252, -2.336e-8
0.251, -2.324e-8
0.250, -2.339e-8
0.249, -2.374e-8
0.248, -2.417e-8
0.247, -2.442e-8
0.246, -2.478e-8
0.245, -2.517e-8
0.244, -2.562e-8
0.243, -2.595e-8
0.242, -2.615e-8
0.241, -2.607e-8
0.240, -2.594e-8
0.239, -2.586e-8
0.238, -2.597e-8
0.237, -2.602e-8
0.236, -2.627e-8
0.235, -2.651e-8
0.234, -2.686e-8
0.233, -2.732e-8
0.232, -2.803e-8
0.231, -2.853e-8
0.230, -2.900e-8
0.229, -2.915e-8
0.228, -2.924e-8
0.227, -2.922e-8
0.226, -2.938e-8
0.225, -2.943e-8
0.224, -2.960e-8
0.223, -2.983e-8
0.222, -3.030e-8
0.221, -3.068e-8
0.220, -3.118e-8
0.219, -3.158e-8
0.218, -3.197e-8
0.217, -3.222e-8
0.216, -3.250e-8
0.215, -3.262e-8
0.214, -3.277e-8
0.213, -3.301e-8
0.212, -3.339e-8
0.211, -3.369e-8
0.210, -3.427e-8
0.209, -3.476e-8
0.208, -3.507e-8
0.207, -3.525e-8
0.206, -3.534e-8
0.205, -3.533e-8
0.204, -3.582e-8
0.203, -3.644e-8
0.202, -3.701e-8
0.201, -3.741e-8
0.200, -3.760e-8
0.199, -3.768e-8
0.198, -3.809e-8
0.197, -3.862e-8
0.196, -3.930e-8
0.195, -3.990e-8
0.194, -4.042e-8
0.193, -4.085e-8
0.192, -4.128e-8
0.191, -4.158e-8
0.190, -4.201e-8
0.189, -4.240e-8
0.188, -4.291e-8
0.187, -4.347e-8
0.186, -4.401e-8
0.185, -4.436e-8
0.184, -4.472e-8
0.183, -4.503e-8
0.182, -4.559e-8
0.181, -4.647e-8
0.180, -4.739e-8
0.179, -4.809e-8
0.178, -4.851e-8
0.177, -4.862e-8
0.176, -4.876e-8
0.175, -4.904e-8
0.174, -4.948e-8
0.173, -5.002e-8
0.172, -5.063e-8
0.171, -5.119e-8
0.170, -5.180e-8
0.169, -5.227e-8
0.168, -5.284e-8
0.167, -5.340e-8
0.166, -5.395e-8
0.165, -5.438e-8
0.164, -5.483e-8
0.163, -5.509e-8
0.162, -5.539e-8
0.161, -5.565e-8
0.160, -5.605e-8
0.159, -5.670e-8
0.158, -5.755e-8
0.157, -5.846e-8
0.156, -5.937e-8
0.155, -6.008e-8
0.154, -6.067e-8
0.153, -6.118e-8
0.152, -6.152e-8
0.151, -6.185e-8
0.150, -6.225e-8
0.149, -6.266e-8
0.148, -6.312e-8
0.147, -6.354e-8
0.146, -6.392e-8
0.145, -6.434e-8
0.144, -6.480e-8
0.143, -6.531e-8
0.142, -6.604e-8
0.141, -6.684e-8
0.140, -6.768e-8
0.139, -6.844e-8
0.138, -6.894e-8
0.137, -6.917e-8
0.136, -6.954e-8
0.135, -6.996e-8
0.134, -7.054e-8
0.133, -7.117e-8
0.132, -7.169e-8
0.131, -7.216e-8
0.130, -7.280e-8
0.129, -7.352e-8
0.128, -7.435e-8
0.127, -7.504e-8
0.126, -7.555e-8
0.125, -7.589e-8
0.124, -7.607e-8
0.123, -7.616e-8
0.122, -7.637e-8
0.121, -7.676e-8
0.120, -7.742e-8
0.119, -7.806e-8
0.118, -7.851e-8
0.117, -7.891e-8
0.116, -7.938e-8
0.115, -7.997e-8
0.114, -8.067e-8
0.113, -8.109e-8
0.112, -8.131e-8
0.111, -8.152e-8
0.110, -8.178e-8
0.109, -8.210e-8
0.108, -8.259e-8
0.107, -8.313e-8
0.106, -8.375e-8
0.105, -8.444e-8
0.104, -8.507e-8
0.103, -8.558e-8
0.102, -8.594e-8
0.101, -8.635e-8
0.100, -8.665e-8
0.099, -8.693e-8
0.098, -8.724e-8
0.097, -8.760e-8
0.096, -8.787e-8
0.095, -8.838e-8
0.094, -8.880e-8
0.093, -8.916e-8
0.092, -8.957e-8
0.091, -8.997e-8
0.090, -9.021e-8
0.089, -9.055e-8
0.088, -9.097e-8
0.087, -9.140e-8
0.086, -9.188e-8
0.085, -9.236e-8
0.084, -9.269e-8
0.083, -9.301e-8
0.082, -9.339e-8
0.081, -9.367e-8
0.080, -9.387e-8
0.079, -9.421e-8
0.078, -9.472e-8
0.077, -9.528e-8
0.076, -9.576e-8
0.075, -9.598e-8
0.074, -9.597e-8
0.073, -9.607e-8
0.072, -9.647e-8
0.071, -9.693e-8
0.070, -9.739e-8
0.069, -9.770e-8
0.068, -9.787e-8
0.067, -9.808e-8
0.066, -9.846e-8
0.065, -9.882e-8
0.064, -9.917e-8
0.063, -9.944e-8
0.062, -9.971e-8
0.061, -9.998e-8
0.060, -1.003e-7
0.059, -1.007e-7
0.058, -1.009e-7
0.057, -1.012e-7
0.056, -1.014e-7
0.055, -1.017e-7
0.054, -1.020e-7
0.053, -1.024e-7
0.052, -1.028e-7
0.051, -1.032e-7
0.050, -1.035e-7
0.049, -1.038e-7
0.048, -1.040e-7
0.047, -1.041e-7
0.046, -1.043e-7
0.045, -1.044e-7
0.044, -1.046e-7
0.043, -1.049e-7
0.042, -1.053e-7
0.041, -1.056e-7
0.040, -1.060e-7
0.039, -1.064e-7
0.038, -1.067e-7
0.037, -1.070e-7
0.036, -1.071e-7
0.035, -1.072e-7
0.034, -1.074e-7
0.033, -1.076e-7
0.032, -1.079e-7
0.031, -1.083e-7
0.030, -1.086e-7
0.029, -1.089e-7
0.028, -1.093e-7
0.027, -1.098e-7
0.026, -1.102e-7
0.025, -1.105e-7
0.024, -1.106e-7
0.023, -1.106e-7
0.022, -1.107e-7
0.021, -1.110e-7
0.020, -1.113e-7
0.019, -1.115e-7
0.018, -1.117e-7
0.017, -1.119e-7
0.016, -1.122e-7
0.015, -1.126e-7
0.014, -1.130e-7
0.013, -1.134e-7
0.012, -1.137e-7
0.011, -1.139e-7
0.010, -1.141e-7
0.009, -1.143e-7
0.008, -1.146e-7
0.007, -1.149e-7
0.006, -1.152e-7
0.005, -1.155e-7
0.004, -1.159e-7
0.003, -1.163e-7
0.002, -1.169e-7
0.001, -1.175e-7
0.000, -1.181e-7
-0.001, -1.185e-7
-0.002, -1.187e-7
-0.003, -1.188e-7
-0.004, -1.189e-7
-0.005, -1.191e-7
-0.006, -1.193e-7
-0.007, -1.197e-7
-0.008, -1.202e-7
-0.009, -1.206e-7
-0.010, -1.209e-7
-0.011, -1.211e-7
-0.012, -1.214e-7
-0.013, -1.218e-7
-0.014, -1.225e-7
-0.015, -1.231e-7
-0.016, -1.235e-7
-0.017, -1.239e-7
-0.018, -1.242e-7
-0.019, -1.244e-7
-0.020, -1.248e-7
-0.021, -1.254e-7
-0.022, -1.259e-7
-0.023, -1.266e-7
-0.024, -1.273e-7
-0.025, -1.277e-7
-0.026, -1.281e-7
-0.027, -1.285e-7
-0.028, -1.289e-7
-0.029, -1.293e-7
-0.030, -1.297e-7
-0.031, -1.301e-7
-0.032, -1.305e-7
-0.033, -1.311e-7
-0.034, -1.316e-7
-0.035, -1.321e-7
-0.036, -1.328e-7
-0.037, -1.334e-7
-0.038, -1.341e-7
-0.039, -1.348e-7
-0.040, -1.355e-7
-0.041, -1.360e-7
-0.042, -1.365e-7
-0.043, -1.369e-7
-0.044, -1.372e-7
-0.045, -1.376e-7
-0.046, -1.382e-7
-0.047, -1.388e-7
-0.048, -1.394e-7
-0.049, -1.401e-7
-0.050, -1.409e-7
-0.051, -1.417e-7
-0.052, -1.425e-7
-0.053, -1.431e-7
-0.054, -1.435e-7
-0.055, -1.438e-7
-0.056, -1.442e-7
-0.057, -1.446e-7
-0.058, -1.451e-7
-0.059, -1.456e-7
-0.060, -1.464e-7
-0.061, -1.472e-7
-0.062, -1.482e-7
-0.063, -1.491e-7
-0.064, -1.498e-7
-0.065, -1.503e-7
-0.066, -1.508e-7
-0.067, -1.512e-7
-0.068, -1.519e-7
-0.069, -1.526e-7
-0.070, -1.533e-7
-0.071, -1.540e-7
-0.072, -1.546e-7
-0.073, -1.551e-7
-0.074, -1.559e-7
-0.075, -1.568e-7
-0.076, -1.578e-7
-0.077, -1.588e-7
-0.078, -1.595e-7
-0.079, -1.601e-7
-0.080, -1.605e-7
-0.081, -1.608e-7
-0.082, -1.614e-7
-0.083, -1.620e-7
-0.084, -1.629e-7
-0.085, -1.639e-7
-0.086, -1.646e-7
-0.087, -1.653e-7
-0.088, -1.661e-7
-0.089, -1.669e-7
-0.090, -1.678e-7
-0.091, -1.688e-7
-0.092, -1.695e-7
-0.093, -1.701e-7
-0.094, -1.705e-7
-0.095, -1.708e-7
-0.096, -1.712e-7
-0.097, -1.719e-7
-0.098, -1.729e-7
-0.099, -1.739e-7
-0.100, -1.750e-7
-0.101, -1.760e-7
-0.102, -1.767e-7
-0.103, -1.774e-7
-0.104, -1.783e-7
-0.105, -1.791e-7
-0.106, -1.799e-7
-0.107, -1.807e-7
-0.108, -1.814e-7
-0.109, -1.821e-7
-0.110, -1.830e-7
-0.111, -1.839e-7
-0.112, -1.849e-7
-0.113, -1.859e-7
-0.114, -1.868e-7
-0.115, -1.876e-7
-0.116, -1.883e-7
-0.117, -1.888e-7
-0.118, -1.894e-7
-0.119, -1.902e-7
-0.120, -1.912e-7
-0.121, -1.922e-7
-0.122, -1.931e-7
-0.123, -1.939e-7
-0.124, -1.948e-7
-0.125, -1.957e-7
-0.126, -1.968e-7
-0.127, -1.979e-7
-0.128, -1.989e-7
-0.129, -1.995e-7
-0.130, -2.001e-7
-0.131, -2.005e-7
-0.132, -2.011e-7
-0.133, -2.018e-7
-0.134, -2.026e-7
-0.135, -2.033e-7
-0.136, -2.042e-7
-0.137, -2.051e-7
-0.138, -2.060e-7
-0.139, -2.069e-7
-0.140, -2.078e-7
-0.141, -2.087e-7
-0.142, -2.095e-7
-0.143, -2.102e-7
-0.144, -2.107e-7
-0.145, -2.111e-7
-0.146, -2.116e-7
-0.147, -2.123e-7
-0.148, -2.133e-7
-0.149, -2.143e-7
-0.150, -2.152e-7
-0.151, -2.160e-7
-0.152, -2.168e-7
-0.153, -2.176e-7
-0.154, -2.183e-7
-0.155, -2.189e-7
-0.156, -2.194e-7
-0.157, -2.199e-7
-0.158, -2.205e-7
-0.159, -2.211e-7
-0.160, -2.217e-7
-0.161, -2.222e-7
-0.162, -2.228e-7
-0.163, -2.234e-7
-0.164, -2.242e-7
-0.165, -2.250e-7
-0.166, -2.259e-7
-0.167, -2.267e-7
-0.168, -2.274e-7
-0.169, -2.280e-7
-0.170, -2.285e-7
-0.171, -2.289e-7
-0.172, -2.294e-7
-0.173, -2.300e-7
-0.174, -2.307e-7
-0.175, -2.314e-7
-0.176, -2.323e-7
-0.177, -2.331e-7
-0.178, -2.341e-7
-0.179, -2.349e-7
-0.180, -2.358e-7
-0.181, -2.365e-7
-0.182, -2.371e-7
-0.183, -2.375e-7
-0.184, -2.381e-7
-0.185, -2.385e-7
-0.186, -2.392e-7
-0.187, -2.398e-7
-0.188, -2.406e-7
-0.189, -2.413e-7
-0.190, -2.424e-7
-0.191, -2.435e-7
-0.192, -2.447e-7
-0.193, -2.456e-7
-0.194, -2.465e-7
-0.195, -2.470e-7
-0.196, -2.476e-7
-0.197, -2.481e-7
-0.198, -2.487e-7
-0.199, -2.494e-7
-0.200, -2.507e-7
-0.201, -2.519e-7
-0.202, -2.530e-7
-0.203, -2.537e-7
-0.204, -2.541e-7
-0.205, -2.545e-7
-0.206, -2.555e-7
-0.207, -2.570e-7
-0.208, -2.584e-7
-0.209, -2.595e-7
-0.210, -2.604e-7
-0.211, -2.611e-7
-0.212, -2.622e-7
-0.213, -2.636e-7
-0.214, -2.652e-7
-0.215, -2.665e-7
-0.216, -2.677e-7
-0.217, -2.686e-7
-0.218, -2.696e-7
-0.219, -2.708e-7
-0.220, -2.722e-7
-0.221, -2.733e-7
-0.222, -2.745e-7
-0.223, -2.754e-7
-0.224, -2.766e-7
-0.225, -2.779e-7
-0.226, -2.793e-7
-0.227, -2.804e-7
-0.228, -2.819e-7
-0.229, -2.835e-7
-0.230, -2.854e-7
-0.231, -2.870e-7
-0.232, -2.884e-7
-0.233, -2.893e-7
-0.234, -2.901e-7
-0.235, -2.911e-7
-0.236, -2.924e-7
-0.237, -2.938e-7
-0.238, -2.954e-7
-0.239, -2.967e-7
-0.240, -2.980e-7
-0.241, -2.991e-7
-0.242, -3.005e-7
-0.243, -3.018e-7
-0.244, -3.034e-7
-0.245, -3.047e-7
-0.246, -3.059e-7
-0.247, -3.068e-7
-0.248, -3.077e-7
-0.249, -3.087e-7
-0.250, -3.100e-7
-0.251, -3.113e-7
-0.252, -3.129e-7
-0.253, -3.144e-7
-0.254, -3.162e-7
-0.255, -3.179e-7
-0.256, -3.195e-7
-0.257, -3.206e-7
-0.258, -3.217e-7
-0.259, -3.223e-7
-0.260, -3.232e-7
-0.261, -3.239e-7
-0.262, -3.247e-7
-0.263, -3.257e-7
-0.264, -3.269e-7
-0.265, -3.282e-7
-0.266, -3.297e-7
-0.267, -3.309e-7
-0.268, -3.320e-7
-0.269, -3.328e-7
-0.270, -3.336e-7
-0.271, -3.343e-7
-0.272, -3.353e-7
-0.273, -3.363e-7
-0.274, -3.373e-7
-0.275, -3.381e-7
-0.276, -3.389e-7
-0.277, -3.396e-7
-0.278, -3.405e-7
-0.279, -3.415e-7
-0.280, -3.424e-7
-0.281, -3.432e-7
-0.282, -3.440e-7
-0.283, -3.446e-7
-0.284, -3.452e-7
-0.285, -3.457e-7
-0.286, -3.462e-7
-0.287, -3.467e-7
-0.288, -3.472e-7
-0.289, -3.477e-7
-0.290, -3.483e-7
-0.291, -3.489e-7
-0.292, -3.495e-7
-0.293, -3.501e-7
-0.294, -3.507e-7
-0.295, -3.511e-7
-0.296, -3.516e-7
-0.297, -3.520e-7
-0.298, -3.525e-7
-0.299, -3.529e-7
-0.300, -3.534e-7
-0.301, -3.538e-7
-0.302, -3.544e-7
-0.303, -3.549e-7
-0.304, -3.556e-7
-0.305, -3.563e-7
-0.306, -3.570e-7
-0.307, -3.575e-7
-0.308, -3.581e-7
-0.309, -3.586e-7
-0.310, -3.591e-7
-0.311, -3.595e-7
-0.312, -3.600e-7
-0.313, -3.605e-7
-0.314, -3.611e-7
-0.315, -3.618e-7
-0.316, -3.627e-7
-0.317, -3.634e-7
-0.318, -3.643e-7
-0.319, -3.650e-7
-0.320, -3.658e-7
-0.321, -3.665e-7
-0.322, -3.673e-7
-0.323, -3.679e-7
-0.324, -3.687e-7
-0.325, -3.695e-7
-0.326, -3.703e-7
-0.327, -3.711e-7
-0.328, -3.720e-7
-0.329, -3.726e-7
-0.330, -3.736e-7
-0.331, -3.746e-7
-0.332, -3.759e-7
-0.333, -3.772e-7
-0.334, -3.783e-7
-0.335, -3.791e-7
-0.336, -3.799e-7
-0.337, -3.807e-7
-0.338, -3.816e-7
-0.339, -3.826e-7
-0.340, -3.837e-7
-0.341, -3.846e-7
-0.342, -3.856e-7
-0.343, -3.866e-7
-0.344, -3.878e-7
-0.345, -3.890e-7
-0.346, -3.903e-7
-0.347, -3.912e-7
-0.348, -3.922e-7
-0.349, -3.929e-7
-0.350, -3.941e-7
-0.351, -3.952e-7
-0.352, -3.961e-7
-0.353, -3.970e-7
-0.354, -3.981e-7
-0.355, -3.992e-7
-0.356, -4.009e-7
-0.357, -4.026e-7
-0.358, -4.042e-7
-0.359, -4.056e-7
-0.360, -4.070e-7
-0.361, -4.082e-7
-0.362, -4.093e-7
-0.363, -4.102e-7
-0.364, -4.109e-7
-0.365, -4.115e-7
-0.366, -4.126e-7
-0.367, -4.138e-7
-0.368, -4.152e-7
-0.369, -4.165e-7
-0.370, -4.179e-7
-0.371, -4.191e-7
-0.372, -4.205e-7
-0.373, -4.219e-7
-0.374, -4.234e-7
-0.375, -4.245e-7
-0.376, -4.257e-7
-0.377, -4.266e-7
-0.378, -4.277e-7
-0.379, -4.290e-7
-0.380, -4.304e-7
-0.381, -4.318e-7
-0.382, -4.336e-7
-0.383, -4.351e-7
-0.384, -4.367e-7
-0.385, -4.378e-7
-0.386, -4.390e-7
-0.387, -4.399e-7
-0.388, -4.412e-7
-0.389, -4.423e-7
-0.390, -4.435e-7
-0.391, -4.446e-7
-0.392, -4.458e-7
-0.393, -4.471e-7
-0.394, -4.484e-7
-0.395, -4.498e-7
-0.396, -4.512e-7
-0.397, -4.525e-7
-0.398, -4.539e-7
-0.399, -4.549e-7
-0.400, -4.559e-7
-0.401, -4.568e-7
-0.402, -4.578e-7
-0.403, -4.587e-7
-0.404, -4.599e-7
-0.405, -4.608e-7
-0.406, -4.618e-7
-0.407, -4.631e-7
-0.408, -4.648e-7
-0.409, -4.666e-7
-0.410, -4.681e-7
-0.411, -4.688e-7
-0.412, -4.692e-7
-0.413, -4.695e-7
-0.414, -4.704e-7
-0.415, -4.712e-7
-0.416, -4.720e-7
-0.417, -4.726e-7
-0.418, -4.734e-7
-0.419, -4.743e-7
-0.420, -4.755e-7
-0.421, -4.764e-7
-0.422, -4.775e-7
-0.423, -4.781e-7
-0.424, -4.789e-7
-0.425, -4.797e-7
-0.426, -4.806e-7
-0.427, -4.816e-7
-0.428, -4.826e-7
-0.429, -4.832e-7
-0.430, -4.839e-7
-0.431, -4.845e-7
-0.432, -4.855e-7
-0.433, -4.869e-7
-0.434, -4.884e-7
-0.435, -4.898e-7
-0.436, -4.908e-7
-0.437, -4.913e-7
-0.438, -4.919e-7
-0.439, -4.927e-7
-0.440, -4.936e-7
-0.441, -4.944e-7
-0.442, -4.953e-7
-0.443, -4.962e-7
-0.444, -4.973e-7
-0.445, -4.984e-7
-0.446, -4.998e-7
-0.447, -5.011e-7
-0.448, -5.024e-7
-0.449, -5.034e-7
-0.450, -5.043e-7
-0.451, -5.049e-7
-0.452, -5.056e-7
-0.453, -5.066e-7
-0.454, -5.078e-7
-0.455, -5.090e-7
-0.456, -5.104e-7
-0.457, -5.114e-7
-0.458, -5.125e-7
-0.459, -5.136e-7
-0.460, -5.149e-7
-0.461, -5.162e-7
-0.462, -5.175e-7
-0.463, -5.185e-7
-0.464, -5.193e-7
-0.465, -5.201e-7
-0.466, -5.210e-7
-0.467, -5.219e-7
-0.468, -5.232e-7
-0.469, -5.245e-7
-0.470, -5.259e-7
-0.471, -5.273e-7
-0.472, -5.288e-7
-0.473, -5.299e-7
-0.474, -5.310e-7
-0.475, -5.319e-7
-0.476, -5.330e-7
-0.477, -5.339e-7
-0.478, -5.350e-7
-0.479, -5.358e-7
-0.480, -5.367e-7
-0.481, -5.377e-7
-0.482, -5.392e-7
-0.483, -5.407e-7
-0.484, -5.425e-7
-0.485, -5.441e-7
-0.486, -5.458e-7
-0.487, -5.471e-7
-0.488, -5.484e-7
-0.489, -5.493e-7
-0.490, -5.500e-7
-0.491, -5.507e-7
-0.492, -5.518e-7
-0.493, -5.530e-7
-0.494, -5.548e-7
-0.495, -5.564e-7
-0.496, -5.578e-7
-0.497, -5.589e-7
-0.498, -5.601e-7
-0.499, -5.612e-7
-0.500, -5.626e-7
-0.501, -5.638e-7
-0.502, -5.649e-7
-0.503, -5.658e-7
-0.504, -5.668e-7
-0.505, -5.679e-7
-0.506, -5.690e-7
-0.507, -5.701e-7
-0.508, -5.715e-7
-0.509, -5.726e-7
-0.510, -5.742e-7
-0.511, -5.756e-7
-0.512, -5.768e-7
-0.513, -5.777e-7
-0.514, -5.786e-7
-0.515, -5.793e-7
-0.516, -5.802e-7
-0.517, -5.811e-7
-0.518, -5.821e-7
-0.519, -5.831e-7
-0.520, -5.841e-7
-0.521, -5.849e-7
-0.522, -5.858e-7
-0.523, -5.868e-7
-0.524, -5.878e-7
-0.525, -5.887e-7
-0.526, -5.896e-7
-0.527, -5.903e-7
-0.528, -5.912e-7
-0.529, -5.920e-7
-0.530, -5.928e-7
-0.531, -5.934e-7
-0.532, -5.942e-7
-0.533, -5.949e-7
-0.534, -5.958e-7
-0.535, -5.969e-7
-0.536, -5.981e-7
-0.537, -5.993e-7
-0.538, -6.004e-7
-0.539, -6.011e-7
-0.540, -6.017e-7
-0.541, -6.021e-7
-0.542, -6.027e-7
-0.543, -6.034e-7
-0.544, -6.044e-7
-0.545, -6.054e-7
-0.546, -6.065e-7
-0.547, -6.075e-7
-0.548, -6.084e-7
-0.549, -6.091e-7
-0.550, -6.101e-7
-0.551, -6.110e-7
-0.552, -6.122e-7
-0.553, -6.133e-7
-0.554, -6.143e-7
-0.555, -6.153e-7
-0.556, -6.163e-7
-0.557, -6.171e-7
-0.558, -6.183e-7
-0.559, -6.195e-7
-0.560, -6.208e-7
-0.561, -6.223e-7
-0.562, -6.238e-7
-0.563, -6.251e-7
-0.564, -6.263e-7
-0.565, -6.272e-7
-0.566, -6.281e-7
-0.567, -6.290e-7
-0.568, -6.302e-7
-0.569, -6.315e-7
-0.570, -6.333e-7
-0.571, -6.350e-7
-0.572, -6.367e-7
-0.573, -6.381e-7
-0.574, -6.396e-7
-0.575, -6.409e-7
-0.576, -6.423e-7
-0.577, -6.434e-7
-0.578, -6.445e-7
-0.579, -6.453e-7
-0.580, -6.464e-7
-0.581, -6.477e-7
-0.582, -6.492e-7
-0.583, -6.506e-7
-0.584, -6.522e-7
-0.585, -6.536e-7
-0.586, -6.552e-7
-0.587, -6.570e-7
-0.588, -6.590e-7
-0.589, -6.608e-7
-0.590, -6.624e-7
-0.591, -6.635e-7
-0.592, -6.643e-7
-0.593, -6.653e-7
-0.594, -6.665e-7
-0.595, -6.679e-7
-0.596, -6.696e-7
-0.597, -6.712e-7
-0.598, -6.729e-7
-0.599, -6.745e-7
-0.600, -6.765e-7
-0.601, -6.781e-7
-0.602, -6.797e-7
-0.603, -6.811e-7
-0.604, -6.825e-7
-0.605, -6.838e-7
-0.606, -6.854e-7
-0.607, -6.868e-7
-0.608, -6.880e-7
-0.609, -6.894e-7
-0.610, -6.912e-7
-0.611, -6.928e-7
-0.612, -6.943e-7
-0.613, -6.953e-7
-0.614, -6.961e-7
-0.615, -6.972e-7
-0.616, -6.988e-7
-0.617, -7.006e-7
-0.618, -7.022e-7
-0.619, -7.036e-7
-0.620, -7.049e-7
-0.621, -7.059e-7
-0.622, -7.072e-7
-0.623, -7.083e-7
-0.624, -7.094e-7
-0.625, -7.106e-7
-0.626, -7.120e-7
-0.627, -7.132e-7
-0.628, -7.146e-7
-0.629, -7.158e-7
-0.630, -7.169e-7
-0.631, -7.180e-7
-0.632, -7.192e-7
-0.633, -7.203e-7
-0.634, -7.214e-7
-0.635, -7.225e-7
-0.636, -7.236e-7
-0.637, -7.250e-7
-0.638, -7.266e-7
-0.639, -7.284e-7
-0.640, -7.300e-7
