Pomiar CV tla odtlenionego
Potential/V, Current/A
0.500, 1.528e-7
0.499, 1.320e-7
0.498, 1.153e-7
0.497, 1.027e-7
0.496, 9.555e-8
0.495, 9.118e-8
0.494, 8.762e-8
0.493, 8.369e-8
0.492, 7.984e-8
0.491, 7.653e-8
0.490, 7.323e-8
0.489, 7.030e-8
0.488, 6.725e-8
0.487, 6.468e-8
0.486, 6.213e-8
0.485, 5.988e-8
0.484, 5.759e-8
0.483, 5.566e-8
0.482, 5.352e-8
0.481, 5.181e-8
0.480, 4.999e-8
0.479, 4.827e-8
0.478, 4.650e-8
0.477, 4.494e-8
0.476, 4.313e-8
0.475, 4.157e-8
0.474, 3.992e-8
0.473, 3.864e-8
0.472, 3.742e-8
0.471, 3.647e-8
0.470, 3.526e-8
0.469, 3.413e-8
0.468, 3.294e-8
0.467, 3.213e-8
0.466, 3.119e-8
0.465, 3.046e-8
0.464, 2.942e-8
0.463, 2.839e-8
0.462, 2.721e-8
0.461, 2.626e-8
0.460, 2.524e-8
0.459, 2.459e-8
0.458, 2.393e-8
0.457, 2.347e-8
0.456, 2.282e-8
0.455, 2.226e-8
0.454, 2.154e-8
0.453, 2.094e-8
0.452, 2.021e-8
0.451, 1.966e-8
0.450, 1.895e-8
0.449, 1.835e-8
0.448, 1.767e-8
0.447, 1.710e-8
0.446, 1.645e-8
0.445, 1.608e-8
0.444, 1.565e-8
0.443, 1.528e-8
0.442, 1.475e-8
0.441, 1.426e-8
0.440, 1.362e-8
0.439, 1.314e-8
0.438, 1.254e-8
0.437, 1.200e-8
0.436, 1.140e-8
0.435, 1.110e-8
0.434, 1.080e-8
0.433, 1.066e-8
0.432, 1.039e-8
0.431, 1.012e-8
0.430, 9.663e-9
0.429, 9.375e-9
0.428, 8.883e-9
0.427, 8.443e-9
0.426, 7.852e-9
0.425, 7.369e-9
0.424, 6.719e-9
0.423, 6.313e-9
0.422, 5.917e-9
0.421, 5.704e-9
0.420, 5.433e-9
0.419, 5.380e-9
0.418, 5.032e-9
0.417, 4.772e-9
0.416, 4.349e-9
0.415, 4.023e-9
0.414, 3.597e-9
0.413, 3.361e-9
0.412, 2.794e-9
0.411, 2.242e-9
0.410, 1.513e-9
0.409, 1.159e-9
0.408, 7.681e-10
0.407, 6.317e-10
0.406, 4.685e-10
0.405, 4.545e-10
0.404, 3.678e-10
0.403, 5.577e-10
0.402, 3.374e-10
0.401, 2.224e-11
0.400, -4.735e-10
0.399, -9.519e-10
0.398, -1.483e-9
0.397, -1.737e-9
0.396, -2.095e-9
0.395, -2.303e-9
0.394, -2.560e-9
0.393, -2.673e-9
0.392, -2.874e-9
0.391, -2.933e-9
0.390, -3.151e-9
0.389, -3.312e-9
0.388, -3.595e-9
0.387, -3.766e-9
0.386, -4.197e-9
0.385, -4.562e-9
0.384, -5.074e-9
0.383, -5.398e-9
0.382, -5.707e-9
0.381, -5.777e-9
0.380, -6.024e-9
0.379, -6.051e-9
0.378, -6.126e-9
0.377, -6.075e-9
0.376, -6.222e-9
0.375, -6.351e-9
0.374, -6.741e-9
0.373, -7.021e-9
0.372, -7.413e-9
0.371, -7.617e-9
0.370, -7.891e-9
0.369, -7.974e-9
0.368, -8.087e-9
0.367, -8.131e-9
0.366, -8.369e-9
0.365, -8.466e-9
0.364, -8.745e-9
0.363, -8.856e-9
0.362, -9.081e-9
0.361, -9.288e-9
0.360, -9.695e-9
0.359, -9.921e-9
0.358, -1.021e-8
0.357, -1.032e-8
0.356, -1.051e-8
0.355, -1.052e-8
0.354, -1.074e-8
0.353, -1.081e-8
0.352, -1.095e-8
0.351, -1.105e-8
0.350, -1.120e-8
0.349, -1.115e-8
0.348, -1.146e-8
0.347, -1.170e-8
0.346, -1.216e-8
0.345, -1.245e-8
0.344, -1.273e-8
0.343, -1.269e-8
0.342, -1.265e-8
0.341, -1.248e-8
0.340, -1.256e-8
0.339, -1.254e-8
0.338, -1.280e-8
0.337, -1.295e-8
0.336, -1.312e-8
0.335, -1.335e-8
0.334, -1.376e-8
0.333, -1.398e-8
0.332, -1.423e-8
0.331, -1.417e-8
0.330, -1.408e-8
0.329, -1.393e-8
0.328, -1.396e-8
0.327, -1.393e-8
0.326, -1.411e-8
0.325, -1.421e-8
0.324, -1.446e-8
0.323, -1.457e-8
0.322, -1.485e-8
0.321, -1.509e-8
0.320, -1.547e-8
0.319, -1.564e-8
0.318, -1.579e-8
0.317, -1.571e-8
0.316, -1.574e-8
0.315, -1.579e-8
0.314, -1.607e-8
0.313, -1.612e-8
0.312, -1.625e-8
0.311, -1.618e-8
0.310, -1.614e-8
0.309, -1.619e-8
0.308, -1.651e-8
0.307, -1.670e-8
0.306, -1.711e-8
0.305, -1.718e-8
0.304, -1.705e-8
0.303, -1.676e-8
0.302, -1.654e-8
0.301, -1.639e-8
0.300, -1.674e-8
0.299, -1.705e-8
0.298, -1.747e-8
0.297, -1.777e-8
0.296, -1.795e-8
0.295, -1.799e-8
0.294, -1.804e-8
0.293, -1.796e-8
0.292, -1.806e-8
0.291, -1.818e-8
0.290, -1.843e-8
0.289, -1.864e-8
0.288, -1.881e-8
0.287, -1.884e-8
0.286, -1.888e-8
0.285, -1.876e-8
0.284, -1.885e-8
0.283, -1.908e-8
0.282, -1.955e-8
0.281, -1.991e-8
0.280, -2.023e-8
0.279, -2.022e-8
0.278, -2.021e-8
0.277, -2.014e-8
0.276, -2.013e-8
0.275, -1.996e-8
0.274, -1.997e-8
0.273, -2.005e-8
0.272, -2.045e-8
0.271, -2.089e-8
0.270, -2.119e-8
0.269, -2.118e-8
0.268, -2.105e-8
0.267, -2.094e-8
0.266, -2.114e-8
0.265, -2.135e-8
0.264, -2.155e-8
0.263, -2.170e-8
0.262, -2.190e-8
0.261, -2.220e-8
0.260, -2.267e-8
0.259, -2.293e-8
0.258, -2.325e-8
0.257, -2.348e-8
0.256, -2.374e-8
0.255, -2.389e-8
0.254, -2.391e-8
0.253, -2.355e-8
0.252, -2.336e-8
0.251, -2.324e-8
0.250, -2.339e-8
0.249, -2.374e-8
0.248, -2.417e-8
0.247, -2.442e-8
0.246, -2.478e-8
0.245, -2.517e-8
0.244, -2.562e-8
0.243, -2.595e-8
0.242, -2.615e-8
0.241, -2.607e-8
0.240, -2.594e-8
0.239, -2.586e-8
0.238, -2.597e-8
0.237, -2.602e-8
0.236, -2.627e-8
0.235, -2.651e-8
0.234, -2.686e-8
0.233, -2.732e-8
0.232, -2.803e-8
0.231, -2.853e-8
0.230, -2.900e-8
0.229, -2.915e-8
0.228, -2.924e-8
0.227, -2.922e-8
0.226, -2.938e-8
0.225, -2.943e-8
0.224, -2.960e-8
0.223, -2.983e-8
0.222, -3.030e-8
0.221, -3.068e-8
0.220, -3.118e-8
0.219, -3.158e-8
0.218, -3.197e-8
0.217, -3.222e-8
0.216, -3.250e-8
0.215, -3.262e-8
0.214, -3.277e-8
0.213, -3.301e-8
0.212, -3.339e-8
0.211, -3.369e-8
0.210, -3.427e-8
0.209, -3.476e-8
0.208, -3.507e-8
0.207, -3.525e-8
0.206, -3.534e-8
0.205, -3.533e-8
0.204, -3.582e-8
0.203, -3.644e-8
0.202, -3.701e-8
0.201, -3.741e-8
0.200, -3.760e-8
0.199, -3.768e-8
0.198, -3.809e-8
0.197, -3.862e-8
0.196, -3.930e-8
0.195, -3.990e-8
0.194, -4.042e-8
0.193, -4.085e-8
0.192, -4.128e-8
0.191, -4.158e-8
0.190, -4.201e-8
0.189, -4.240e-8
0.188, -4.291e-8
0.187, -4.347e-8
0.186, -4.401e-8
0.185, -4.436e-8
0.184, -4.472e-8
0.183, -4.503e-8
0.182, -4.559e-8
0.181, -4.647e-8
0.180, -4.739e-8
0.179, -4.809e-8
0.178, -4.851e-8
0.177, -4.862e-8
0.176, -4.876e-8
0.175, -4.904e-8
0.174, -4.948e-8
0.173, -5.002e-8
0.172, -5.063e-8
0.171, -5.119e-8
0.170, -5.180e-8
0.169, -5.227e-8
0.168, -5.284e-8
0.167, -5.340e-8
0.166, -5.395e-8
0.165, -5.438e-8
0.164, -5.483e-8
0.163, -5.509e-8
0.162, -5.539e-8
0.161, -5.565e-8
0.160, -5.605e-8
0.159, -5.670e-8
0.158, -5.755e-8
0.157, -5.846e-8
0.156, -5.937e-8
0.155, -6.008e-8
0.154, -6.067e-8
0.153, -6.118e-8
0.152, -6.152e-8
0.151, -6.185e-8
0.150, -6.225e-8
0.149, -6.266e-8
0.148, -6.312e-8
0.147, -6.354e-8
0.146, -6.392e-8
0.145, -6.434e-8
0.144, -6.480e-8
0.143, -6.531e-8
0.142, -6.604e-8
0.141, -6.684e-8
0.140, -6.768e-8
0.139, -6.844e-8
0.138, -6.894e-8
0.137, -6.917e-8
0.136, -6.954e-8
0.135, -6.996e-8
0.134, -7.054e-8
0.133, -7.117e-8
0.132, -7.169e-8
0.131, -7.216e-8
0.130, -7.280e-8
0.129, -7.352e-8
0.128, -7.435e-8
0.127, -7.504e-8
0.126, -7.555e-8
0.125, -7.589e-8
0.124, -7.607e-8
0.123, -7.616e-8
0.122, -7.637e-8
0.121, -7.676e-8
0.120, -7.742e-8
0.119, -7.806e-8
0.118, -7.851e-8
0.117, -7.891e-8
0.116, -7.938e-8
0.115, -7.997e-8
0.114, -8.067e-8
0.113, -8.109e-8
0.112, -8.131e-8
0.111, -8.152e-8
0.110, -8.178e-8
0.109, -8.210e-8
0.108, -8.259e-8
0.107, -8.313e-8
0.106, -8.375e-8
0.105, -8.444e-8
0.104, -8.507e-8
0.103, -8.558e-8
0.102, -8.594e-8
0.101, -8.635e-8
0.100, -8.665e-8
0.099, -8.693e-8
0.098, -8.724e-8
0.097, -8.760e-8
0.096, -8.787e-8
0.095, -8.838e-8
0.094, -8.880e-8
0.093, -8.916e-8
0.092, -8.957e-8
0.091, -8.997e-8
0.090, -9.021e-8
0.089, -9.055e-8
0.088, -9.097e-8
0.087, -9.140e-8
0.086, -9.188e-8
0.085, -9.236e-8
0.084, -9.269e-8
0.083, -9.301e-8
0.082, -9.339e-8
0.081, -9.367e-8
0.080, -9.387e-8
0.079, -9.421e-8
0.078, -9.472e-8
0.077, -9.528e-8
0.076, -9.576e-8
0.075, -9.598e-8
0.074, -9.597e-8
0.073, -9.607e-8
0.072, -9.647e-8
0.071, -9.693e-8
0.070, -9.739e-8
0.069, -9.770e-8
0.068, -9.787e-8
0.067, -9.808e-8
0.066, -9.846e-8
0.065, -9.882e-8
0.064, -9.917e-8
0.063, -9.944e-8
0.062, -9.971e-8
0.061, -9.998e-8
0.060, -1.003e-7
0.059, -1.007e-7
0.058, -1.009e-7
0.057, -1.012e-7
0.056, -1.014e-7
0.055, -1.017e-7
0.054, -1.020e-7
0.053, -1.024e-7
0.052, -1.028e-7
0.051, -1.032e-7
0.050, -1.035e-7
0.049, -1.038e-7
0.048, -1.040e-7
0.047, -1.041e-7
0.046, -1.043e-7
0.045, -1.044e-7
0.044, -1.046e-7
0.043, -1.049e-7
0.042, -1.053e-7
0.041, -1.056e-7
0.040, -1.060e-7
0.039, -1.064e-7
0.038, -1.067e-7
0.037, -1.070e-7
0.036, -1.071e-7
0.035, -1.072e-7
0.034, -1.074e-7
0.033, -1.076e-7
0.032, -1.079e-7
0.031, -1.083e-7
0.030, -1.086e-7
0.029, -1.089e-7
0.028, -1.093e-7
0.027, -1.098e-7
0.026, -1.102e-7
0.025, -1.105e-7
0.024, -1.106e-7
0.023, -1.106e-7
0.022, -1.107e-7
0.021, -1.110e-7
0.020, -1.113e-7
0.019, -1.115e-7
0.018, -1.117e-7
0.017, -1.119e-7
0.016, -1.122e-7
0.015, -1.126e-7
0.014, -1.130e-7
0.013, -1.134e-7
0.012, -1.137e-7
0.011, -1.139e-7
0.010, -1.141e-7
0.009, -1.143e-7
0.008, -1.146e-7
0.007, -1.149e-7
0.006, -1.152e-7
0.005, -1.155e-7
0.004, -1.159e-7
0.003, -1.163e-7
0.002, -1.169e-7
0.001, -1.175e-7
0.000, -1.181e-7
-0.001, -1.185e-7
-0.002, -1.187e-7
-0.003, -1.188e-7
-0.004, -1.189e-7
-0.005, -1.191e-7
-0.006, -1.193e-7
-0.007, -1.197e-7
-0.008, -1.202e-7
-0.009, -1.206e-7
-0.010, -1.209e-7
-0.011, -1.211e-7
-0.012, -1.214e-7
-0.013, -1.218e-7
-0.014, -1.225e-7
-0.015, -1.231e-7
-0.016, -1.235e-7
-0.017, -1.239e-7
-0.018, -1.242e-7
-0.019, -1.244e-7
-0.020, -1.248e-7
-0.021, -1.254e-7
-0.022, -1.259e-7
-0.023, -1.266e-7
-0.024, -1.273e-7
-0.025, -1.277e-7
-0.026, -1.281e-7
-0.027, -1.285e-7
-0.028, -1.289e-7
-0.029, -1.293e-7
-0.030, -1.297e-7
-0.031, -1.301e-7
-0.032, -1.305e-7
-0.033, -1.311e-7
-0.034, -1.316e-7
-0.035, -1.321e-7
-0.036, -1.328e-7
-0.037, -1.334e-7
-0.038, -1.341e-7
-0.039, -1.348e-7
-0.040, -1.355e-7
-0.041, -1.360e-7
-0.042, -1.365e-7
-0.043, -1.369e-7
-0.044, -1.372e-7
-0.045, -1.376e-7
-0.046, -1.382e-7
-0.047, -1.388e-7
-0.048, -1.394e-7
-0.049, -1.401e-7
-0.050, -1.409e-7
-0.051, -1.417e-7
-0.052, -1.425e-7
-0.053, -1.431e-7
-0.054, -1.435e-7
-0.055, -1.438e-7
-0.056, -1.442e-7
-0.057, -1.446e-7
-0.058, -1.451e-7
-0.059, -1.456e-7
-0.060, -1.464e-7
-0.061, -1.472e-7
-0.062, -1.482e-7
-0.063, -1.491e-7
-0.064, -1.498e-7
-0.065, -1.503e-7
-0.066, -1.508e-7
-0.067, -1.512e-7
-0.068, -1.519e-7
-0.069, -1.526e-7
-0.070, -1.533e-7
-0.071, -1.540e-7
-0.072, -1.546e-7
-0.073, -1.551e-7
-0.074, -1.559e-7
-0.075, -1.568e-7
-0.076, -1.578e-7
-0.077, -1.588e-7
-0.078, -1.595e-7
-0.079, -1.601e-7
-0.080, -1.605e-7
-0.081, -1.608e-7
-0.082, -1.614e-7
-0.083, -1.620e-7
-0.084, -1.629e-7
-0.085, -1.639e-7
-0.086, -1.646e-7
-0.087, -1.653e-7
-0.088, -1.661e-7
-0.089, -1.669e-7
-0.090, -1.678e-7
-0.091, -1.688e-7
-0.092, -1.695e-7
-0.093, -1.701e-7
-0.094, -1.705e-7
-0.095, -1.708e-7
-0.096, -1.712e-7
-0.097, -1.719e-7
-0.098, -1.729e-7
-0.099, -1.739e-7
-0.100, -1.750e-7
-0.101, -1.760e-7
-0.102, -1.767e-7
-0.103, -1.774e-7
-0.104, -1.783e-7
-0.105, -1.791e-7
-0.106, -1.799e-7
-0.107, -1.807e-7
-0.108, -1.814e-7
-0.109, -1.821e-7
-0.110, -1.830e-7
-0.111, -1.839e-7
-0.112, -1.849e-7
-0.113, -1.859e-7
-0.114, -1.868e-7
-0.115, -1.876e-7
-0.116, -1.883e-7
-0.117, -1.888e-7
-0.118, -1.894e-7
-0.119, -1.902e-7
-0.120, -1.912e-7
-0.121, -1.922e-7
-0.122, -1.931e-7
-0.123, -1.939e-7
-0.124, -1.948e-7
-0.125, -1.957e-7
-0.126, -1.968e-7
-0.127, -1.979e-7
-0.128, -1.989e-7
-0.129, -1.995e-7
-0.130, -2.001e-7
-0.131, -2.005e-7
-0.132, -2.011e-7
-0.133, -2.018e-7
-0.134, -2.026e-7
-0.135, -2.033e-7
-0.136, -2.042e-7
-0.137, -2.051e-7
-0.138, -2.060e-7
-0.139, -2.069e-7
-0.140, -2.078e-7
-0.141, -2.087e-7
-0.142, -2.095e-7
-0.143, -2.102e-7
-0.144, -2.107e-7
-0.145, -2.111e-7
-0.146, -2.116e-7
-0.147, -2.123e-7
-0.148, -2.133e-7
-0.149, -2.143e-7
-0.150, -2.152e-7
-0.151, -2.160e-7
-0.152, -2.168e-7
-0.153, -2.176e-7
-0.154, -2.183e-7
-0.155, -2.189e-7
-0.156, -2.194e-7
-0.157, -2.199e-7
-0.158, -2.205e-7
-0.159, -2.211e-7
-0.160, -2.217e-7
-0.161, -2.222e-7
-0.162, -2.228e-7
-0.163, -2.234e-7
-0.164, -2.242e-7
-0.165, -2.250e-7
-0.166, -2.259e-7
-0.167, -2.267e-7
-0.168, -2.274e-7
-0.169, -2.280e-7
-0.170, -2.285e-7
-0.171, -2.289e-7
-0.172, -2.294e-7
-0.173, -2.300e-7
-0.174, -2.307e-7
-0.175, -2.314e-7
-0.176, -2.323e-7
-0.177, -2.331e-7
-0.178, -2.341e-7
-0.179, -2.349e-7
-0.180, -2.358e-7
-0.181, -2.365e-7
-0.182, -2.371e-7
-0.183, -2.375e-7
-0.184, -2.381e-7
-0.185, -2.385e-7
-0.186, -2.392e-7
-0.187, -2.398e-7
-0.188, -2.406e-7
-0.189, -2.413e-7
-0.190, -2.424e-7
-0.191, -2.435e-7
-0.192, -2.447e-7
-0.193, -2.456e-7
-0.194, -2.465e-7
-0.195, -2.470e-7
-0.196, -2.476e-7
-0.197, -2.481e-7
-0.198, -2.487e-7
-0.199, -2.494e-7
-0.200, -2.507e-7
-0.201, -2.519e-7
-0.202, -2.530e-7
-0.203, -2.537e-7
-0.204, -2.541e-7
-0.205, -2.545e-7
-0.206, -2.555e-7
-0.207, -2.570e-7
-0.208, -2.584e-7
-0.209, -2.595e-7
-0.210, -2.604e-7
-0.211, -2.611e-7
-0.212, -2.622e-7
-0.213, -2.636e-7
-0.214, -2.652e-7
-0.215, -2.665e-7
-0.216, -2.677e-7
-0.217, -2.686e-7
-0.218, -2.696e-7
-0.219, -2.708e-7
-0.220, -2.722e-7
-0.221, -2.733e-7
-0.222, -2.745e-7
-0.223, -2.754e-7
-0.224, -2.766e-7
-0.225, -2.779e-7
-0.226, -2.793e-7
-0.227, -2.804e-7
-0.228, -2.819e-7
-0.229, -2.835e-7
-0.230, -2.854e-7
-0.231, -2.870e-7
-0.232, -2.884e-7
-0.233, -2.893e-7
-0.234, -2.901e-7
-0.235, -2.911e-7
-0.236, -2.924e-7
-0.237, -2.938e-7
-0.238, -2.954e-7
-0.239, -2.967e-7
-0.240, -2.980e-7
-0.241, -2.991e-7
-0.242, -3.005e-7
-0.243, -3.018e-7
-0.244, -3.034e-7
-0.245, -3.047e-7
-0.246, -3.059e-7
-0.247, -3.068e-7
-0.248, -3.077e-7
-0.249, -3.087e-7
-0.250, -3.100e-7
-0.251, -3.113e-7
-0.252, -3.129e-7
-0.253, -3.144e-7
-0.254, -3.162e-7
-0.255, -3.179e-7
-0.256, -3.195e-7
-0.257, -3.206e-7
-0.258, -3.217e-7
-0.259, -3.223e-7
-0.260, -3.232e-7
-0.261, -3.239e-7
-0.262, -3.247e-7
-0.263, -3.257e-7
-0.264, -3.269e-7
-0.265, -3.282e-7
-0.266, -3.297e-7
-0.267, -3.309e-7
-0.268, -3.320e-7
-0.269, -3.328e-7
-0.270, -3.336e-7
-0.271, -3.343e-7
-0.272, -3.353e-7
-0.273, -3.363e-7
-0.274, -3.373e-7
-0.275, -3.381e-7
-0.276, -3.389e-7
-0.277, -3.396e-7
-0.278, -3.405e-7
-0.279, -3.415e-7
-0.280, -3.424e-7
-0.281, -3.432e-7
-0.282, -3.440e-7
-0.283, -3.446e-7
-0.284, -3.452e-7
-0.285, -3.457e-7
-0.286, -3.462e-7
-0.287, -3.467e-7
-0.288, -3.472e-7
-0.289, -3.477e-7
-0.290, -3.483e-7
-0.291, -3.489e-7
-0.292, -3.495e-7
-0.293, -3.501e-7
-0.294, -3.507e-7
-0.295, -3.511e-7
-0.296, -3.516e-7
-0.297, -3.520e-7
-0.298, -3.525e-7
-0.299, -3.529e-7
-0.300, -3.534e-7
-0.301, -3.538e-7
-0.302, -3.544e-7
-0.303, -3.549e-7
-0.304, -3.556e-7
-0.305, -3.563e-7
-0.306, -3.570e-7
-0.307, -3.575e-7
-0.308, -3.581e-7
-0.309, -3.586e-7
-0.310, -3.591e-7
-0.311, -3.595e-7
-0.312, -3.600e-7
-0.313, -3.605e-7
-0.314, -3.611e-7
-0.315, -3.618e-7
-0.316, -3.627e-7
-0.317, -3.634e-7
-0.318, -3.643e-7
-0.319, -3.650e-7
-0.320, -3.658e-7
-0.321, -3.665e-7
-0.322, -3.673e-7
-0.323, -3.679e-7
-0.324, -3.687e-7
-0.325, -3.695e-7
-0.326, -3.703e-7
-0.327, -3.711e-7
-0.328, -3.720e-7
-0.329, -3.726e-7
-0.330, -3.736e-7
-0.331, -3.746e-7
-0.332, -3.759e-7
-0.333, -3.772e-7
-0.334, -3.783e-7
-0.335, -3.791e-7
-0.336, -3.799e-7
-0.337, -3.807e-7
-0.338, -3.816e-7
-0.339, -3.826e-7
-0.340, -3.837e-7
-0.341, -3.846e-7
-0.342, -3.856e-7
-0.343, -3.866e-7
-0.344, -3.878e-7
-0.345, -3.890e-7
-0.346, -3.903e-7
-0.347, -3.912e-7
-0.348, -3.922e-7
-0.349, -3.929e-7
-0.350, -3.941e-7
-0.351, -3.952e-7
-0.352, -3.961e-7
-0.353, -3.970e-7
-0.354, -3.981e-7
-0.355, -3.992e-7
-0.356, -4.009e-7
-0.357, -4.026e-7
-0.358, -4.042e-7
-0.359, -4.056e-7
-0.360, -4.070e-7
-0.361, -4.082e-7
-0.362, -4.093e-7
-0.363, -4.102e-7
-0.364, -4.109e-7
-0.365, -4.115e-7
-0.366, -4.126e-7
-0.367, -4.138e-7
-0.368, -4.152e-7
-0.369, -4.165e-7
-0.370, -4.179e-7
-0.371, -4.191e-7
-0.372, -4.205e-7
-0.373, -4.219e-7
-0.374, -4.234e-7
-0.375, -4.245e-7
-0.376, -4.257e-7
-0.377, -4.266e-7
-0.378, -4.277e-7
-0.379, -4.290e-7
-0.380, -4.304e-7
-0.381, -4.318e-7
-0.382, -4.336e-7
-0.383, -4.351e-7
-0.384, -4.367e-7
-0.385, -4.378e-7
-0.386, -4.390e-7
-0.387, -4.399e-7
-0.388, -4.412e-7
-0.389, -4.423e-7
-0.390, -4.435e-7
-0.391, -4.446e-7
-0.392, -4.458e-7
-0.393, -4.471e-7
-0.394, -4.484e-7
-0.395, -4.498e-7
-0.396, -4.512e-7
-0.397, -4.525e-7
-0.398, -4.539e-7
-0.399, -4.549e-7
-0.400, -4.559e-7
-0.401, -4.568e-7
-0.402, -4.578e-7
-0.403, -4.587e-7
-0.404, -4.599e-7
-0.405, -4.608e-7
-0.406, -4.618e-7
-0.407, -4.631e-7
-0.408, -4.648e-7
-0.409, -4.666e-7
-0.410, -4.681e-7
-0.411, -4.688e-7
-0.412, -4.692e-7
-0.413, -4.695e-7
-0.414, -4.704e-7
-0.415, -4.712e-7
-0.416, -4.720e-7
-0.417, -4.726e-7
-0.418, -4.734e-7
-0.419, -4.743e-7
-0.420, -4.755e-7
-0.421, -4.764e-7
-0.422, -4.775e-7
-0.423, -4.781e-7
-0.424, -4.789e-7
-0.425, -4.797e-7
-0.426, -4.806e-7
-0.427, -4.816e-7
-0.428, -4.826e-7
-0.429, -4.832e-7
-0.430, -4.839e-7
-0.431, -4.845e-7
-0.432, -4.855e-7
-0.433, -4.869e-7
-0.434, -4.884e-7
-0.435, -4.898e-7
-0.436, -4.908e-7
-0.437, -4.913e-7
-0.438, -4.919e-7
-0.439, -4.927e-7
-0.440, -4.936e-7
-0.441, -4.944e-7
-0.442, -4.953e-7
-0.443, -4.962e-7
-0.444, -4.973e-7
-0.445, -4.984e-7
-0.446, -4.998e-7
-0.447, -5.011e-7
-0.448, -5.024e-7
-0.449, -5.034e-7
-0.450, -5.043e-7
-0.451, -5.049e-7
-0.452, -5.056e-7
-0.453, -5.066e-7
-0.454, -5.078e-7
-0.455, -5.090e-7
-0.456, -5.104e-7
-0.457, -5.114e-7
-0.458, -5.125e-7
-0.459, -5.136e-7
-0.460, -5.149e-7
-0.461, -5.162e-7
-0.462, -5.175e-7
-0.463, -5.185e-7
-0.464, -5.193e-7
-0.465, -5.201e-7
-0.466, -5.210e-7
-0.467, -5.219e-7
-0.468, -5.232e-7
-0.469, -5.245e-7
-0.470, -5.259e-7
-0.471, -5.273e-7
-0.472, -5.288e-7
-0.473, -5.299e-7
-0.474, -5.310e-7
-0.475, -5.319e-7
-0.476, -5.330e-7
-0.477, -5.339e-7
-0.478, -5.350e-7
-0.479, -5.358e-7
-0.480, -5.367e-7
-0.481, -5.377e-7
-0.482, -5.392e-7
-0.483, -5.407e-7
-0.484, -5.425e-7
-0.485, -5.441e-7
-0.486, -5.458e-7
-0.487, -5.471e-7
-0.488, -5.484e-7
-0.489, -5.493e-7
-0.490, -5.500e-7
-0.491, -5.507e-7
-0.492, -5.518e-7
-0.493, -5.530e-7
-0.494, -5.548e-7
-0.495, -5.564e-7
-0.496, -5.578e-7
-0.497, -5.589e-7
-0.498, -5.601e-7
-0.499, -5.612e-7
-0.500, -5.626e-7
-0.501, -5.638e-7
-0.502, -5.649e-7
-0.503, -5.658e-7
-0.504, -5.668e-7
-0.505, -5.679e-7
-0.506, -5.690e-7
-0.507, -5.701e-7
-0.508, -5.715e-7
-0.509, -5.726e-7
-0.510, -5.742e-7
-0.511, -5.756e-7
-0.512, -5.768e-7
-0.513, -5.777e-7
-0.514, -5.786e-7
-0.515, -5.793e-7
-0.516, -5.802e-7
-0.517, -5.811e-7
-0.518, -5.821e-7
-0.519, -5.831e-7
-0.520, -5.841e-7
-0.521, -5.849e-7
-0.522, -5.858e-7
-0.523, -5.868e-7
-0.524, -5.878e-7
-0.525, -5.887e-7
-0.526, -5.896e-7
-0.527, -5.903e-7
-0.528, -5.912e-7
-0.529, -5.920e-7
-0.530, -5.928e-7
-0.531, -5.934e-7
-0.532, -5.942e-7
-0.533, -5.949e-7
-0.534, -5.958e-7
-0.535, -5.969e-7
-0.536, -5.981e-7
-0.537, -5.993e-7
-0.538, -6.004e-7
-0.539, -6.011e-7
-0.540, -6.017e-7
-0.541, -6.021e-7
-0.542, -6.027e-7
-0.543, -6.034e-7
-0.544, -6.044e-7
-0.545, -6.054e-7
-0.546, -6.065e-7
-0.547, -6.075e-7
-0.548, -6.084e-7
-0.549, -6.091e-7
-0.550, -6.101e-7
-0.551, -6.110e-7
-0.552, -6.122e-7
-0.553, -6.133e-7
-0.554, -6.143e-7
-0.555, -6.153e-7
-0.556, -6.163e-7
-0.557, -6.171e-7
-0.558, -6.183e-7
-0.559, -6.195e-7
-0.560, -6.208e-7
-0.561, -6.223e-7
-0.562, -6.238e-7
-0.563, -6.251e-7
-0.564, -6.263e-7
-0.565, -6.272e-7
-0.566, -6.281e-7
-0.567, -6.290e-7
-0.568, -6.302e-7
-0.569, -6.315e-7
-0.570, -6.333e-7
-0.571, -6.350e-7
-0.572, -6.367e-7
-0.573, -6.381e-7
-0.574, -6.396e-7
-0.575, -6.409e-7
-0.576, -6.423e-7
-0.577, -6.434e-7
-0.578, -6.445e-7
-0.579, -6.453e-7
-0.580, -6.464e-7
-0.581, -6.477e-7
-0.582, -6.492e-7
-0.583, -6.506e-7
-0.584, -6.522e-7
-0.585, -6.536e-7
-0.586, -6.552e-7
-0.587, -6.570e-7
-0.588, -6.590e-7
-0.589, -6.608e-7
-0.590, -6.624e-7
-0.591, -6.635e-7
-0.592, -6.643e-7
-0.593, -6.653e-7
-0.594, -6.665e-7
-0.595, -6.679e-7
-0.596, -6.696e-7
-0.597, -6.712e-7
-0.598, -6.729e-7
-0.599, -6.745e-7
-0.600, -6.765e-7
-0.601, -6.781e-7
-0.602, -6.797e-7
-0.603, -6.811e-7
-0.604, -6.825e-7
-0.605, -6.838e-7
-0.606, -6.854e-7
-0.607, -6.868e-7
-0.608, -6.880e-7
-0.609, -6.894e-7
-0.610, -6.912e-7
-0.611, -6.928e-7
-0.612, -6.943e-7
-0.613, -6.953e-7
-0.614, -6.961e-7
-0.615, -6.972e-7
-0.616, -6.988e-7
-0.617, -7.006e-7
-0.618, -7.022e-7
-0.619, -7.036e-7
-0.620, -7.049e-7
-0.621, -7.059e-7
-0.622, -7.072e-7
-0.623, -7.083e-7
-0.624, -7.094e-7
-0.625, -7.106e-7
-0.626, -7.120e-7
-0.627, -7.132e-7
-0.628, -7.146e-7
-0.629, -7.158e-7
-0.630, -7.169e-7
-0.631, -7.180e-7
-0.632, -7.192e-7
-0.633, -7.203e-7
-0.634, -7.214e-7
-0.635, -7.225e-7
-0.636, -7.236e-7
-0.637, -7.250e-7
-0.638, -7.266e-7
-0.639, -7.284e-7
-0.640, -7.300e-7
-0.641, -7.313e-7
-0.642, -7.325e-7
-0.643, -7.334e-7
-0.644, -7.346e-7
-0.645, -7.358e-7
-0.646, -7.372e-7
-0.647, -7.385e-7
-0.648, -7.399e-7
-0.649, -7.413e-7
-0.650, -7.430e-7
-0.651, -7.450e-7
-0.652, -7.472e-7
-0.653, -7.492e-7
-0.654, -7.513e-7
-0.655, -7.528e-7
-0.656, -7.542e-7
-0.657, -7.556e-7
-0.658, -7.572e-7
-0.659, -7.589e-7
-0.660, -7.611e-7
-0.661, -7.633e-7
-0.662, -7.657e-7
-0.663, -7.682e-7
-0.664, -7.710e-7
-0.665, -7.736e-7
-0.666, -7.761e-7
-0.667, -7.780e-7
-0.668, -7.798e-7
-0.669, -7.813e-7
-0.670, -7.831e-7
-0.671, -7.849e-7
-0.672, -7.870e-7
-0.673, -7.892e-7
-0.674, -7.915e-7
-0.675, -7.936e-7
-0.676, -7.961e-7
-0.677, -7.987e-7
-0.678, -8.016e-7
-0.679, -8.040e-7
-0.680, -8.064e-7
-0.681, -8.082e-7
-0.682, -8.101e-7
-0.683, -8.120e-7
-0.684, -8.139e-7
-0.685, -8.155e-7
-0.686, -8.174e-7
-0.687, -8.192e-7
-0.688, -8.212e-7
-0.689, -8.232e-7
-0.690, -8.254e-7
-0.691, -8.274e-7
-0.692, -8.294e-7
-0.693, -8.311e-7
-0.694, -8.328e-7
-0.695, -8.342e-7
-0.696, -8.355e-7
-0.697, -8.368e-7
-0.698, -8.380e-7
-0.699, -8.394e-7
-0.700, -8.409e-7
-0.701, -8.423e-7
-0.702, -8.438e-7
-0.703, -8.453e-7
-0.704, -8.468e-7
-0.705, -8.483e-7
-0.706, -8.498e-7
-0.707, -8.511e-7
-0.708, -8.524e-7
-0.709, -8.537e-7
-0.710, -8.551e-7
-0.711, -8.566e-7
-0.712, -8.583e-7
-0.713, -8.601e-7
-0.714, -8.620e-7
-0.715, -8.640e-7
-0.716, -8.660e-7
-0.717, -8.681e-7
-0.718, -8.701e-7
-0.719, -8.720e-7
-0.720, -8.736e-7
-0.721, -8.752e-7
-0.722, -8.769e-7
-0.723, -8.787e-7
-0.724, -8.808e-7
-0.725, -8.829e-7
-0.726, -8.849e-7
-0.727, -8.870e-7
-0.728, -8.894e-7
-0.729, -8.919e-7
-0.730, -8.945e-7
-0.731, -8.969e-7
-0.732, -8.992e-7
-0.733, -9.012e-7
-0.734, -9.032e-7
-0.735, -9.051e-7
-0.736, -9.071e-7
-0.737, -9.093e-7
-0.738, -9.117e-7
-0.739, -9.142e-7
-0.740, -9.168e-7
-0.741, -9.194e-7
-0.742, -9.220e-7
-0.743, -9.244e-7
-0.744, -9.266e-7
-0.745, -9.289e-7
-0.746, -9.313e-7
-0.747, -9.339e-7
-0.748, -9.364e-7
-0.749, -9.386e-7
-0.750, -9.405e-7
-0.751, -9.424e-7
-0.752, -9.445e-7
-0.753, -9.468e-7
-0.754, -9.492e-7
-0.755, -9.516e-7
-0.756, -9.537e-7
-0.757, -9.556e-7
-0.758, -9.572e-7
-0.759, -9.588e-7
-0.760, -9.603e-7
-0.761, -9.619e-7
-0.762, -9.634e-7
-0.763, -9.652e-7
-0.764, -9.672e-7
-0.765, -9.692e-7
-0.766, -9.714e-7
-0.767, -9.736e-7
-0.768, -9.757e-7
-0.769, -9.778e-7
-0.770, -9.798e-7
-0.771, -9.820e-7
-0.772, -9.840e-7
-0.773, -9.859e-7
-0.774, -9.879e-7
-0.775, -9.901e-7
-0.776, -9.927e-7
-0.777, -9.956e-7
-0.778, -9.985e-7
-0.779, -1.001e-6
-0.780, -1.004e-6
-0.781, -1.007e-6
-0.782, -1.009e-6
-0.783, -1.012e-6
-0.784, -1.014e-6
-0.785, -1.016e-6
-0.786, -1.019e-6
-0.787, -1.021e-6
-0.788, -1.024e-6
-0.789, -1.026e-6
-0.790, -1.029e-6
-0.791, -1.033e-6
-0.792, -1.036e-6
-0.793, -1.039e-6
-0.794, -1.042e-6
-0.795, -1.045e-6
-0.796, -1.048e-6
-0.797, -1.051e-6
-0.798, -1.054e-6
-0.799, -1.056e-6
-0.800, -1.059e-6
-0.801, -1.061e-6
-0.802, -1.064e-6
-0.803, -1.067e-6
-0.804, -1.070e-6
-0.805, -1.072e-6
-0.806, -1.074e-6
-0.807, -1.076e-6
-0.808, -1.078e-6
-0.809, -1.080e-6
-0.810, -1.082e-6
-0.811, -1.083e-6
-0.812, -1.085e-6
-0.813, -1.087e-6
-0.814, -1.089e-6
-0.815, -1.091e-6
-0.816, -1.093e-6
-0.817, -1.095e-6
-0.818, -1.099e-6
-0.819, -1.102e-6
-0.820, -1.105e-6
-0.821, -1.108e-6
-0.822, -1.109e-6
-0.823, -1.111e-6
-0.824, -1.113e-6
-0.825, -1.116e-6
-0.826, -1.118e-6
-0.827, -1.121e-6
-0.828, -1.125e-6
-0.829, -1.128e-6
-0.830, -1.132e-6
-0.831, -1.135e-6
-0.832, -1.138e-6
-0.833, -1.141e-6
-0.834, -1.145e-6
-0.835, -1.148e-6
-0.836, -1.151e-6
-0.837, -1.154e-6
-0.838, -1.156e-6
-0.839, -1.160e-6
-0.840, -1.164e-6
-0.841, -1.168e-6
-0.842, -1.172e-6
-0.843, -1.176e-6
-0.844, -1.179e-6
-0.845, -1.183e-6
-0.846, -1.186e-6
-0.847, -1.189e-6
-0.848, -1.192e-6
-0.849, -1.195e-6
-0.850, -1.197e-6
-0.851, -1.200e-6
-0.852, -1.203e-6
-0.853, -1.206e-6
-0.854, -1.209e-6
-0.855, -1.212e-6
-0.856, -1.215e-6
-0.857, -1.218e-6
-0.858, -1.222e-6
-0.859, -1.225e-6
-0.860, -1.229e-6
-0.861, -1.233e-6
-0.862, -1.237e-6
-0.863, -1.241e-6
-0.864, -1.244e-6
-0.865, -1.249e-6
-0.866, -1.253e-6
-0.867, -1.258e-6
-0.868, -1.263e-6
-0.869, -1.269e-6
-0.870, -1.275e-6
-0.871, -1.280e-6
-0.872, -1.285e-6
-0.873, -1.289e-6
-0.874, -1.293e-6
-0.875, -1.297e-6
-0.876, -1.301e-6
-0.877, -1.306e-6
-0.878, -1.309e-6
-0.879, -1.313e-6
-0.880, -1.317e-6
-0.881, -1.320e-6
-0.882, -1.322e-6
-0.883, -1.324e-6
-0.884, -1.326e-6
-0.885, -1.328e-6
-0.886, -1.330e-6
-0.887, -1.332e-6
-0.888, -1.334e-6
-0.889, -1.336e-6
-0.890, -1.338e-6
-0.891, -1.340e-6
-0.892, -1.343e-6
-0.893, -1.346e-6
-0.894, -1.349e-6
-0.895, -1.353e-6
-0.896, -1.357e-6
-0.897, -1.361e-6
-0.898, -1.365e-6
-0.899, -1.368e-6
-0.900, -1.372e-6
-0.901, -1.376e-6
-0.902, -1.380e-6
-0.903, -1.384e-6
-0.904, -1.388e-6
-0.905, -1.392e-6
-0.906, -1.397e-6
-0.907, -1.402e-6
-0.908, -1.407e-6
-0.909, -1.411e-6
-0.910, -1.416e-6
-0.911, -1.420e-6
-0.912, -1.424e-6
-0.913, -1.429e-6
-0.914, -1.433e-6
-0.915, -1.437e-6
-0.916, -1.441e-6
-0.917, -1.445e-6
-0.918, -1.448e-6
-0.919, -1.452e-6
-0.920, -1.455e-6
-0.921, -1.459e-6
-0.922, -1.463e-6
-0.923, -1.468e-6
-0.924, -1.472e-6
-0.925, -1.476e-6
-0.926, -1.480e-6
-0.927, -1.485e-6
-0.928, -1.490e-6
-0.929, -1.495e-6
-0.930, -1.500e-6
-0.931, -1.506e-6
-0.932, -1.512e-6
-0.933, -1.518e-6
-0.934, -1.523e-6
-0.935, -1.529e-6
-0.936, -1.534e-6
-0.937, -1.540e-6
-0.938, -1.545e-6
-0.939, -1.550e-6
-0.940, -1.555e-6
-0.941, -1.559e-6
-0.942, -1.563e-6
-0.943, -1.566e-6
-0.944, -1.569e-6
-0.945, -1.573e-6
-0.946, -1.577e-6
-0.947, -1.580e-6
-0.948, -1.584e-6
-0.949, -1.587e-6
-0.950, -1.590e-6
-0.951, -1.594e-6
-0.952, -1.598e-6
-0.953, -1.602e-6
-0.954, -1.607e-6
-0.955, -1.612e-6
-0.956, -1.618e-6
-0.957, -1.623e-6
-0.958, -1.630e-6
-0.959, -1.636e-6
-0.960, -1.641e-6
-0.961, -1.647e-6
-0.962, -1.653e-6
-0.963, -1.660e-6
-0.964, -1.666e-6
-0.965, -1.671e-6
-0.966, -1.676e-6
-0.967, -1.681e-6
-0.968, -1.686e-6
-0.969, -1.691e-6
-0.970, -1.696e-6
-0.971, -1.700e-6
-0.972, -1.705e-6
-0.973, -1.710e-6
-0.974, -1.715e-6
-0.975, -1.720e-6
-0.976, -1.726e-6
-0.977, -1.732e-6
-0.978, -1.738e-6
-0.979, -1.745e-6
-0.980, -1.752e-6
-0.981, -1.759e-6
-0.982, -1.767e-6
-0.983, -1.775e-6
-0.984, -1.783e-6
-0.985, -1.790e-6
-0.986, -1.797e-6
-0.987, -1.802e-6
-0.988, -1.807e-6
-0.989, -1.811e-6
-0.990, -1.814e-6
-0.991, -1.817e-6
-0.992, -1.820e-6
-0.993, -1.822e-6
-0.994, -1.825e-6
-0.995, -1.828e-6
-0.996, -1.832e-6
-0.997, -1.836e-6
-0.998, -1.840e-6
-0.999, -1.847e-6
-1.000, -1.733e-6
-0.999, -1.586e-6
-0.998, -1.463e-6
-0.997, -1.363e-6
-0.996, -1.293e-6
-0.995, -1.239e-6
-0.994, -1.192e-6
-0.993, -1.146e-6
-0.992, -1.104e-6
-0.991, -1.067e-6
-0.990, -1.033e-6
-0.989, -9.988e-7
-0.988, -9.657e-7
-0.987, -9.340e-7
-0.986, -9.039e-7
-0.985, -8.760e-7
-0.984, -8.491e-7
-0.983, -8.223e-7
-0.982, -7.945e-7
-0.981, -7.669e-7
-0.980, -7.408e-7
-0.979, -7.174e-7
-0.978, -6.952e-7
-0.977, -6.732e-7
-0.976, -6.510e-7
-0.975, -6.297e-7
-0.974, -6.102e-7
-0.973, -5.927e-7
-0.972, -5.750e-7
-0.971, -5.564e-7
-0.970, -5.367e-7
-0.969, -5.180e-7
-0.968, -5.007e-7
-0.967, -4.852e-7
-0.966, -4.700e-7
-0.965, -4.540e-7
-0.964, -4.367e-7
-0.963, -4.195e-7
-0.962, -4.027e-7
-0.961, -3.880e-7
-0.960, -3.752e-7
-0.959, -3.651e-7
-0.958, -3.567e-7
-0.957, -3.495e-7
-0.956, -3.414e-7
-0.955, -3.314e-7
-0.954, -3.186e-7
-0.953, -3.039e-7
-0.952, -2.881e-7
-0.951, -2.731e-7
-0.950, -2.596e-7
-0.949, -2.481e-7
-0.948, -2.380e-7
-0.947, -2.291e-7
-0.946, -2.202e-7
-0.945, -2.111e-7
-0.944, -2.013e-7
-0.943, -1.911e-7
-0.942, -1.805e-7
-0.941, -1.705e-7
-0.940, -1.605e-7
-0.939, -1.512e-7
-0.938, -1.421e-7
-0.937, -1.340e-7
-0.936, -1.263e-7
-0.935, -1.197e-7
-0.934, -1.136e-7
-0.933, -1.081e-7
-0.932, -1.024e-7
-0.931, -9.671e-8
-0.930, -8.987e-8
-0.929, -8.238e-8
-0.928, -7.394e-8
-0.927, -6.496e-8
-0.926, -5.554e-8
-0.925, -4.648e-8
-0.924, -3.722e-8
-0.923, -2.853e-8
-0.922, -2.032e-8
-0.921, -1.300e-8
-0.920, -6.388e-9
-0.919, -6.862e-10
-0.918, 4.827e-9
-0.917, 9.861e-9
-0.916, 1.485e-8
-0.915, 1.954e-8
-0.914, 2.457e-8
-0.913, 2.962e-8
-0.912, 3.522e-8
-0.911, 4.092e-8
-0.910, 4.718e-8
-0.909, 5.328e-8
-0.908, 5.945e-8
-0.907, 6.511e-8
-0.906, 7.070e-8
-0.905, 7.579e-8
-0.904, 8.121e-8
-0.903, 8.627e-8
-0.902, 9.131e-8
-0.901, 9.602e-8
-0.900, 1.006e-7
-0.899, 1.049e-7
-0.898, 1.094e-7
-0.897, 1.137e-7
-0.896, 1.179e-7
-0.895, 1.217e-7
-0.894, 1.249e-7
-0.893, 1.275e-7
-0.892, 1.300e-7
-0.891, 1.321e-7
-0.890, 1.344e-7
-0.889, 1.364e-7
-0.888, 1.387e-7
-0.887, 1.409e-7
-0.886, 1.435e-7
-0.885, 1.464e-7
-0.884, 1.500e-7
-0.883, 1.535e-7
-0.882, 1.573e-7
-0.881, 1.608e-7
-0.880, 1.644e-7
-0.879, 1.681e-7
-0.878, 1.725e-7
-0.877, 1.767e-7
-0.876, 1.813e-7
-0.875, 1.859e-7
-0.874, 1.906e-7
-0.873, 1.952e-7
-0.872, 2.002e-7
-0.871, 2.049e-7
-0.870, 2.095e-7
-0.869, 2.136e-7
-0.868, 2.177e-7
-0.867, 2.212e-7
-0.866, 2.247e-7
-0.865, 2.277e-7
-0.864, 2.305e-7
-0.863, 2.332e-7
-0.862, 2.362e-7
-0.861, 2.391e-7
-0.860, 2.422e-7
-0.859, 2.450e-7
-0.858, 2.478e-7
-0.857, 2.501e-7
-0.856, 2.523e-7
-0.855, 2.542e-7
-0.854, 2.561e-7
-0.853, 2.579e-7
-0.852, 2.599e-7
-0.851, 2.618e-7
-0.850, 2.641e-7
-0.849, 2.663e-7
-0.848, 2.686e-7
-0.847, 2.709e-7
-0.846, 2.734e-7
-0.845, 2.756e-7
-0.844, 2.779e-7
-0.843, 2.800e-7
-0.842, 2.822e-7
-0.841, 2.842e-7
-0.840, 2.865e-7
-0.839, 2.883e-7
-0.838, 2.902e-7
-0.837, 2.922e-7
-0.836, 2.946e-7
-0.835, 2.971e-7
-0.834, 3.001e-7
-0.833, 3.027e-7
-0.832, 3.051e-7
-0.831, 3.073e-7
-0.830, 3.097e-7
-0.829, 3.120e-7
-0.828, 3.143e-7
-0.827, 3.163e-7
-0.826, 3.182e-7
-0.825, 3.198e-7
-0.824, 3.216e-7
-0.823, 3.236e-7
-0.822, 3.261e-7
-0.821, 3.292e-7
-0.820, 3.327e-7
-0.819, 3.358e-7
-0.818, 3.377e-7
-0.817, 3.389e-7
-0.816, 3.398e-7
-0.815, 3.408e-7
-0.814, 3.423e-7
-0.813, 3.440e-7
-0.812, 3.459e-7
-0.811, 3.480e-7
-0.810, 3.502e-7
-0.809, 3.522e-7
-0.808, 3.542e-7
-0.807, 3.557e-7
-0.806, 3.573e-7
-0.805, 3.587e-7
-0.804, 3.601e-7
-0.803, 3.614e-7
-0.802, 3.628e-7
-0.801, 3.641e-7
-0.800, 3.654e-7
-0.799, 3.668e-7
-0.798, 3.682e-7
-0.797, 3.694e-7
-0.796, 3.709e-7
-0.795, 3.723e-7
-0.794, 3.736e-7
-0.793, 3.746e-7
-0.792, 3.755e-7
-0.791, 3.764e-7
-0.790, 3.773e-7
-0.789, 3.783e-7
-0.788, 3.792e-7
-0.787, 3.797e-7
-0.786, 3.805e-7
-0.785, 3.814e-7
-0.784, 3.827e-7
-0.783, 3.841e-7
-0.782, 3.853e-7
-0.781, 3.862e-7
-0.780, 3.871e-7
-0.779, 3.880e-7
-0.778, 3.889e-7
-0.777, 3.897e-7
-0.776, 3.905e-7
-0.775, 3.913e-7
-0.774, 3.923e-7
-0.773, 3.934e-7
-0.772, 3.945e-7
-0.771, 3.956e-7
-0.770, 3.968e-7
-0.769, 3.982e-7
-0.768, 3.996e-7
-0.767, 4.009e-7
-0.766, 4.019e-7
-0.765, 4.026e-7
-0.764, 4.035e-7
-0.763, 4.045e-7
-0.762, 4.057e-7
-0.761, 4.069e-7
-0.760, 4.080e-7
-0.759, 4.090e-7
-0.758, 4.101e-7
-0.757, 4.115e-7
-0.756, 4.131e-7
-0.755, 4.146e-7
-0.754, 4.160e-7
-0.753, 4.171e-7
-0.752, 4.180e-7
-0.751, 4.189e-7
-0.750, 4.197e-7
-0.749, 4.206e-7
-0.748, 4.215e-7
-0.747, 4.226e-7
-0.746, 4.240e-7
-0.745, 4.255e-7
-0.744, 4.273e-7
-0.743, 4.292e-7
-0.742, 4.308e-7
-0.741, 4.320e-7
-0.740, 4.328e-7
-0.739, 4.333e-7
-0.738, 4.337e-7
-0.737, 4.341e-7
-0.736, 4.348e-7
-0.735, 4.357e-7
-0.734, 4.370e-7
-0.733, 4.382e-7
-0.732, 4.395e-7
-0.731, 4.409e-7
-0.730, 4.421e-7
-0.729, 4.431e-7
-0.728, 4.440e-7
-0.727, 4.447e-7
-0.726, 4.453e-7
-0.725, 4.461e-7
-0.724, 4.469e-7
-0.723, 4.476e-7
-0.722, 4.485e-7
-0.721, 4.495e-7
-0.720, 4.504e-7
-0.719, 4.514e-7
-0.718, 4.524e-7
-0.717, 4.532e-7
-0.716, 4.541e-7
-0.715, 4.549e-7
-0.714, 4.556e-7
-0.713, 4.562e-7
-0.712, 4.569e-7
-0.711, 4.575e-7
-0.710, 4.582e-7
-0.709, 4.592e-7
-0.708, 4.603e-7
-0.707, 4.613e-7
-0.706, 4.624e-7
-0.705, 4.635e-7
-0.704, 4.644e-7
-0.703, 4.653e-7
-0.702, 4.661e-7
-0.701, 4.664e-7
-0.700, 4.669e-7
-0.699, 4.673e-7
-0.698, 4.679e-7
-0.697, 4.687e-7
-0.696, 4.698e-7
-0.695, 4.707e-7
-0.694, 4.717e-7
-0.693, 4.728e-7
-0.692, 4.737e-7
-0.691, 4.745e-7
-0.690, 4.751e-7
-0.689, 4.754e-7
-0.688, 4.755e-7
-0.687, 4.758e-7
-0.686, 4.761e-7
-0.685, 4.766e-7
-0.684, 4.772e-7
-0.683, 4.780e-7
-0.682, 4.788e-7
-0.681, 4.797e-7
-0.680, 4.804e-7
-0.679, 4.811e-7
-0.678, 4.818e-7
-0.677, 4.824e-7
-0.676, 4.829e-7
-0.675, 4.833e-7
-0.674, 4.837e-7
-0.673, 4.840e-7
-0.672, 4.844e-7
-0.671, 4.850e-7
-0.670, 4.856e-7
-0.669, 4.863e-7
-0.668, 4.870e-7
-0.667, 4.878e-7
-0.666, 4.886e-7
-0.665, 4.894e-7
-0.664, 4.900e-7
-0.663, 4.903e-7
-0.662, 4.904e-7
-0.661, 4.905e-7
-0.660, 4.908e-7
-0.659, 4.911e-7
-0.658, 4.917e-7
-0.657, 4.924e-7
-0.656, 4.930e-7
-0.655, 4.935e-7
-0.654, 4.940e-7
-0.653, 4.944e-7
-0.652, 4.948e-7
-0.651, 4.954e-7
-0.650, 4.959e-7
-0.649, 4.962e-7
-0.648, 4.964e-7
-0.647, 4.963e-7
-0.646, 4.963e-7
-0.645, 4.968e-7
-0.644, 4.975e-7
-0.643, 4.984e-7
-0.642, 4.992e-7
-0.641, 4.999e-7
-0.640, 5.003e-7
-0.639, 5.006e-7
-0.638, 5.009e-7
-0.637, 5.012e-7
-0.636, 5.015e-7
-0.635, 5.018e-7
-0.634, 5.019e-7
-0.633, 5.019e-7
-0.632, 5.022e-7
-0.631, 5.026e-7
-0.630, 5.031e-7
-0.629, 5.037e-7
-0.628, 5.042e-7
-0.627, 5.045e-7
-0.626, 5.050e-7
-0.625, 5.055e-7
-0.624, 5.058e-7
-0.623, 5.060e-7
-0.622, 5.062e-7
-0.621, 5.063e-7
-0.620, 5.066e-7
-0.619, 5.072e-7
-0.618, 5.075e-7
-0.617, 5.078e-7
-0.616, 5.081e-7
-0.615, 5.082e-7
-0.614, 5.084e-7
-0.613, 5.089e-7
-0.612, 5.094e-7
-0.611, 5.100e-7
-0.610, 5.105e-7
-0.609, 5.107e-7
-0.608, 5.108e-7
-0.607, 5.110e-7
-0.606, 5.113e-7
-0.605, 5.118e-7
-0.604, 5.125e-7
-0.603, 5.130e-7
-0.602, 5.136e-7
-0.601, 5.139e-7
-0.600, 5.142e-7
-0.599, 5.143e-7
-0.598, 5.144e-7
-0.597, 5.146e-7
-0.596, 5.149e-7
-0.595, 5.152e-7
-0.594, 5.156e-7
-0.593, 5.159e-7
-0.592, 5.163e-7
-0.591, 5.169e-7
-0.590, 5.176e-7
-0.589, 5.183e-7
-0.588, 5.187e-7
-0.587, 5.188e-7
-0.586, 5.189e-7
-0.585, 5.190e-7
-0.584, 5.193e-7
-0.583, 5.197e-7
-0.582, 5.199e-7
-0.581, 5.200e-7
-0.580, 5.200e-7
-0.579, 5.202e-7
-0.578, 5.208e-7
-0.577, 5.216e-7
-0.576, 5.223e-7
-0.575, 5.227e-7
-0.574, 5.228e-7
-0.573, 5.228e-7
-0.572, 5.230e-7
-0.571, 5.233e-7
-0.570, 5.236e-7
-0.569, 5.239e-7
-0.568, 5.242e-7
-0.567, 5.245e-7
-0.566, 5.248e-7
-0.565, 5.254e-7
-0.564, 5.260e-7
-0.563, 5.266e-7
-0.562, 5.274e-7
-0.561, 5.280e-7
-0.560, 5.284e-7
-0.559, 5.284e-7
-0.558, 5.281e-7
-0.557, 5.277e-7
-0.556, 5.275e-7
-0.555, 5.277e-7
-0.554, 5.284e-7
-0.553, 5.292e-7
-0.552, 5.299e-7
-0.551, 5.304e-7
-0.550, 5.307e-7
-0.549, 5.311e-7
-0.548, 5.316e-7
-0.547, 5.319e-7
-0.546, 5.321e-7
-0.545, 5.322e-7
-0.544, 5.322e-7
-0.543, 5.325e-7
-0.542, 5.331e-7
-0.541, 5.337e-7
-0.540, 5.343e-7
-0.539, 5.349e-7
-0.538, 5.352e-7
-0.537, 5.354e-7
-0.536, 5.357e-7
-0.535, 5.358e-7
-0.534, 5.359e-7
-0.533, 5.362e-7
-0.532, 5.364e-7
-0.531, 5.366e-7
-0.530, 5.369e-7
-0.529, 5.371e-7
-0.528, 5.373e-7
-0.527, 5.375e-7
-0.526, 5.379e-7
-0.525, 5.383e-7
-0.524, 5.389e-7
-0.523, 5.394e-7
-0.522, 5.398e-7
-0.521, 5.399e-7
-0.520, 5.399e-7
-0.519, 5.399e-7
-0.518, 5.401e-7
-0.517, 5.404e-7
-0.516, 5.409e-7
-0.515, 5.413e-7
-0.514, 5.418e-7
-0.513, 5.423e-7
-0.512, 5.428e-7
-0.511, 5.431e-7
-0.510, 5.433e-7
-0.509, 5.435e-7
-0.508, 5.437e-7
-0.507, 5.439e-7
-0.506, 5.441e-7
-0.505, 5.442e-7
-0.504, 5.445e-7
-0.503, 5.449e-7
-0.502, 5.453e-7
-0.501, 5.458e-7
-0.500, 5.461e-7
-0.499, 5.462e-7
-0.498, 5.464e-7
-0.497, 5.464e-7
-0.496, 5.468e-7
-0.495, 5.470e-7
-0.494, 5.473e-7
-0.493, 5.474e-7
-0.492, 5.477e-7
-0.491, 5.480e-7
-0.490, 5.485e-7
-0.489, 5.490e-7
-0.488, 5.496e-7
-0.487, 5.502e-7
-0.486, 5.507e-7
-0.485, 5.508e-7
-0.484, 5.509e-7
-0.483, 5.509e-7
-0.482, 5.512e-7
-0.481, 5.516e-7
-0.480, 5.518e-7
-0.479, 5.517e-7
-0.478, 5.518e-7
-0.477, 5.519e-7
-0.476, 5.524e-7
-0.475, 5.529e-7
-0.474, 5.536e-7
-0.473, 5.539e-7
-0.472, 5.543e-7
-0.471, 5.545e-7
-0.470, 5.546e-7
-0.469, 5.547e-7
-0.468, 5.549e-7
-0.467, 5.550e-7
-0.466, 5.553e-7
-0.465, 5.555e-7
-0.464, 5.559e-7
-0.463, 5.564e-7
-0.462, 5.571e-7
-0.461, 5.578e-7
-0.460, 5.584e-7
-0.459, 5.587e-7
-0.458, 5.588e-7
-0.457, 5.587e-7
-0.456, 5.587e-7
-0.455, 5.587e-7
-0.454, 5.588e-7
-0.453, 5.590e-7
-0.452, 5.594e-7
-0.451, 5.596e-7
-0.450, 5.602e-7
-0.449, 5.605e-7
-0.448, 5.607e-7
-0.447, 5.608e-7
-0.446, 5.610e-7
-0.445, 5.611e-7
-0.444, 5.616e-7
-0.443, 5.618e-7
-0.442, 5.619e-7
-0.441, 5.617e-7
-0.440, 5.618e-7
-0.439, 5.622e-7
-0.438, 5.630e-7
-0.437, 5.638e-7
-0.436, 5.647e-7
-0.435, 5.652e-7
-0.434, 5.655e-7
-0.433, 5.655e-7
-0.432, 5.654e-7
-0.431, 5.653e-7
-0.430, 5.654e-7
-0.429, 5.655e-7
-0.428, 5.658e-7
-0.427, 5.660e-7
-0.426, 5.662e-7
-0.425, 5.663e-7
-0.424, 5.667e-7
-0.423, 5.671e-7
-0.422, 5.677e-7
-0.421, 5.681e-7
-0.420, 5.685e-7
-0.419, 5.686e-7
-0.418, 5.688e-7
-0.417, 5.689e-7
-0.416, 5.691e-7
-0.415, 5.692e-7
-0.414, 5.694e-7
-0.413, 5.696e-7
-0.412, 5.703e-7
-0.411, 5.712e-7
-0.410, 5.725e-7
-0.409, 5.733e-7
-0.408, 5.734e-7
-0.407, 5.731e-7
-0.406, 5.726e-7
-0.405, 5.724e-7
-0.404, 5.726e-7
-0.403, 5.728e-7
-0.402, 5.731e-7
-0.401, 5.735e-7
-0.400, 5.738e-7
-0.399, 5.743e-7
-0.398, 5.749e-7
-0.397, 5.754e-7
-0.396, 5.758e-7
-0.395, 5.760e-7
-0.394, 5.761e-7
-0.393, 5.760e-7
-0.392, 5.760e-7
-0.391, 5.760e-7
-0.390, 5.762e-7
-0.389, 5.764e-7
-0.388, 5.769e-7
-0.387, 5.774e-7
-0.386, 5.783e-7
-0.385, 5.791e-7
-0.384, 5.798e-7
-0.383, 5.800e-7
-0.382, 5.799e-7
-0.381, 5.798e-7
-0.380, 5.798e-7
-0.379, 5.799e-7
-0.378, 5.803e-7
-0.377, 5.804e-7
-0.376, 5.807e-7
-0.375, 5.810e-7
-0.374, 5.814e-7
-0.373, 5.819e-7
-0.372, 5.825e-7
-0.371, 5.829e-7
-0.370, 5.834e-7
-0.369, 5.835e-7
-0.368, 5.836e-7
-0.367, 5.836e-7
-0.366, 5.837e-7
-0.365, 5.837e-7
-0.364, 5.841e-7
-0.363, 5.843e-7
-0.362, 5.849e-7
-0.361, 5.855e-7
-0.360, 5.863e-7
-0.359, 5.868e-7
-0.358, 5.873e-7
-0.357, 5.874e-7
-0.356, 5.875e-7
-0.355, 5.874e-7
-0.354, 5.875e-7
-0.353, 5.875e-7
-0.352, 5.876e-7
-0.351, 5.878e-7
-0.350, 5.882e-7
-0.349, 5.886e-7
-0.348, 5.892e-7
-0.347, 5.896e-7
-0.346, 5.899e-7
-0.345, 5.901e-7
-0.344, 5.904e-7
-0.343, 5.905e-7
-0.342, 5.906e-7
-0.341, 5.907e-7
-0.340, 5.910e-7
-0.339, 5.912e-7
-0.338, 5.916e-7
-0.337, 5.920e-7
-0.336, 5.925e-7
-0.335, 5.930e-7
-0.334, 5.938e-7
-0.333, 5.943e-7
-0.332, 5.947e-7
-0.331, 5.947e-7
-0.330, 5.947e-7
-0.329, 5.946e-7
-0.328, 5.949e-7
-0.327, 5.951e-7
-0.326, 5.952e-7
-0.325, 5.953e-7
-0.324, 5.955e-7
-0.323, 5.956e-7
-0.322, 5.961e-7
-0.321, 5.965e-7
-0.320, 5.969e-7
-0.319, 5.971e-7
-0.318, 5.972e-7
-0.317, 5.971e-7
-0.316, 5.972e-7
-0.315, 5.973e-7
-0.314, 5.977e-7
-0.313, 5.981e-7
-0.312, 5.985e-7
-0.311, 5.985e-7
-0.310, 5.987e-7
-0.309, 5.989e-7
-0.308, 5.994e-7
-0.307, 5.998e-7
-0.306, 6.002e-7
-0.305, 6.003e-7
-0.304, 6.005e-7
-0.303, 6.005e-7
-0.302, 6.006e-7
-0.301, 6.005e-7
-0.300, 6.007e-7
-0.299, 6.009e-7
-0.298, 6.013e-7
-0.297, 6.016e-7
-0.296, 6.020e-7
-0.295, 6.022e-7
-0.294, 6.024e-7
-0.293, 6.026e-7
-0.292, 6.028e-7
-0.291, 6.027e-7
-0.290, 6.028e-7
-0.289, 6.027e-7
-0.288, 6.028e-7
-0.287, 6.029e-7
-0.286, 6.033e-7
-0.285, 6.035e-7
-0.284, 6.039e-7
-0.283, 6.041e-7
-0.282, 6.044e-7
-0.281, 6.045e-7
-0.280, 6.047e-7
-0.279, 6.046e-7
-0.278, 6.046e-7
-0.277, 6.045e-7
-0.276, 6.045e-7
-0.275, 6.044e-7
-0.274, 6.047e-7
-0.273, 6.048e-7
-0.272, 6.051e-7
-0.271, 6.051e-7
-0.270, 6.053e-7
-0.269, 6.054e-7
-0.268, 6.057e-7
-0.267, 6.059e-7
-0.266, 6.060e-7
-0.265, 6.058e-7
-0.264, 6.057e-7
-0.263, 6.055e-7
-0.262, 6.055e-7
-0.261, 6.057e-7
-0.260, 6.061e-7
-0.259, 6.063e-7
-0.258, 6.067e-7
-0.257, 6.070e-7
-0.256, 6.072e-7
-0.255, 6.072e-7
-0.254, 6.073e-7
-0.253, 6.073e-7
-0.252, 6.075e-7
-0.251, 6.075e-7
-0.250, 6.073e-7
-0.249, 6.069e-7
-0.248, 6.069e-7
-0.247, 6.070e-7
-0.246, 6.073e-7
-0.245, 6.076e-7
-0.244, 6.079e-7
-0.243, 6.079e-7
-0.242, 6.079e-7
-0.241, 6.076e-7
-0.240, 6.073e-7
-0.239, 6.071e-7
-0.238, 6.072e-7
-0.237, 6.073e-7
-0.236, 6.075e-7
-0.235, 6.076e-7
-0.234, 6.078e-7
-0.233, 6.080e-7
-0.232, 6.083e-7
-0.231, 6.086e-7
-0.230, 6.088e-7
-0.229, 6.089e-7
-0.228, 6.089e-7
-0.227, 6.085e-7
-0.226, 6.083e-7
-0.225, 6.079e-7
-0.224, 6.077e-7
-0.223, 6.078e-7
-0.222, 6.081e-7
-0.221, 6.083e-7
-0.220, 6.086e-7
-0.219, 6.087e-7
-0.218, 6.086e-7
-0.217, 6.085e-7
-0.216, 6.086e-7
-0.215, 6.087e-7
-0.214, 6.089e-7
-0.213, 6.091e-7
-0.212, 6.091e-7
-0.211, 6.088e-7
-0.210, 6.088e-7
-0.209, 6.088e-7
-0.208, 6.088e-7
-0.207, 6.087e-7
-0.206, 6.085e-7
-0.205, 6.080e-7
-0.204, 6.080e-7
-0.203, 6.082e-7
-0.202, 6.084e-7
-0.201, 6.085e-7
-0.200, 6.087e-7
-0.199, 6.086e-7
-0.198, 6.086e-7
-0.197, 6.087e-7
-0.196, 6.088e-7
-0.195, 6.088e-7
-0.194, 6.091e-7
-0.193, 6.092e-7
-0.192, 6.093e-7
-0.191, 6.093e-7
-0.190, 6.094e-7
-0.189, 6.093e-7
-0.188, 6.093e-7
-0.187, 6.092e-7
-0.186, 6.090e-7
-0.185, 6.088e-7
-0.184, 6.087e-7
-0.183, 6.086e-7
-0.182, 6.088e-7
-0.181, 6.091e-7
-0.180, 6.095e-7
-0.179, 6.097e-7
-0.178, 6.097e-7
-0.177, 6.094e-7
-0.176, 6.092e-7
-0.175, 6.089e-7
-0.174, 6.089e-7
-0.173, 6.088e-7
-0.172, 6.089e-7
-0.171, 6.088e-7
-0.170, 6.089e-7
-0.169, 6.089e-7
-0.168, 6.090e-7
-0.167, 6.090e-7
-0.166, 6.090e-7
-0.165, 6.091e-7
-0.164, 6.093e-7
-0.163, 6.092e-7
-0.162, 6.092e-7
-0.161, 6.090e-7
-0.160, 6.088e-7
-0.159, 6.087e-7
-0.158, 6.087e-7
-0.157, 6.086e-7
-0.156, 6.089e-7
-0.155, 6.092e-7
-0.154, 6.095e-7
-0.153, 6.096e-7
-0.152, 6.096e-7
-0.151, 6.094e-7
-0.150, 6.093e-7
-0.149, 6.092e-7
-0.148, 6.090e-7
-0.147, 6.087e-7
-0.146, 6.086e-7
-0.145, 6.088e-7
-0.144, 6.091e-7
-0.143, 6.093e-7
-0.142, 6.093e-7
-0.141, 6.091e-7
-0.140, 6.090e-7
-0.139, 6.089e-7
-0.138, 6.090e-7
-0.137, 6.090e-7
-0.136, 6.091e-7
-0.135, 6.090e-7
-0.134, 6.090e-7
-0.133, 6.089e-7
-0.132, 6.088e-7
-0.131, 6.088e-7
-0.130, 6.091e-7
-0.129, 6.096e-7
-0.128, 6.099e-7
-0.127, 6.099e-7
-0.126, 6.096e-7
-0.125, 6.092e-7
-0.124, 6.089e-7
-0.123, 6.089e-7
-0.122, 6.090e-7
-0.121, 6.090e-7
-0.120, 6.091e-7
-0.119, 6.090e-7
-0.118, 6.090e-7
-0.117, 6.092e-7
-0.116, 6.095e-7
-0.115, 6.096e-7
-0.114, 6.095e-7
-0.113, 6.092e-7
-0.112, 6.089e-7
-0.111, 6.087e-7
-0.110, 6.088e-7
-0.109, 6.088e-7
-0.108, 6.091e-7
-0.107, 6.093e-7
-0.106, 6.095e-7
-0.105, 6.095e-7
-0.104, 6.096e-7
-0.103, 6.096e-7
-0.102, 6.095e-7
-0.101, 6.094e-7
-0.100, 6.092e-7
-0.099, 6.090e-7
-0.098, 6.089e-7
-0.097, 6.088e-7
-0.096, 6.087e-7
-0.095, 6.087e-7
-0.094, 6.088e-7
-0.093, 6.088e-7
-0.092, 6.089e-7
-0.091, 6.089e-7
-0.090, 6.088e-7
-0.089, 6.087e-7
-0.088, 6.088e-7
-0.087, 6.089e-7
-0.086, 6.090e-7
-0.085, 6.090e-7
-0.084, 6.089e-7
-0.083, 6.086e-7
-0.082, 6.085e-7
-0.081, 6.084e-7
-0.080, 6.084e-7
-0.079, 6.085e-7
-0.078, 6.087e-7
-0.077, 6.090e-7
-0.076, 6.091e-7
-0.075, 6.090e-7
-0.074, 6.089e-7
-0.073, 6.086e-7
-0.072, 6.085e-7
-0.071, 6.085e-7
-0.070, 6.083e-7
-0.069, 6.082e-7
-0.068, 6.082e-7
-0.067, 6.081e-7
-0.066, 6.083e-7
-0.065, 6.085e-7
-0.064, 6.085e-7
-0.063, 6.084e-7
-0.062, 6.083e-7
-0.061, 6.081e-7
-0.060, 6.081e-7
-0.059, 6.080e-7
-0.058, 6.077e-7
-0.057, 6.075e-7
-0.056, 6.073e-7
-0.055, 6.072e-7
-0.054, 6.072e-7
-0.053, 6.074e-7
-0.052, 6.077e-7
-0.051, 6.080e-7
-0.050, 6.081e-7
-0.049, 6.080e-7
-0.048, 6.076e-7
-0.047, 6.074e-7
-0.046, 6.072e-7
-0.045, 6.071e-7
-0.044, 6.070e-7
-0.043, 6.071e-7
-0.042, 6.070e-7
-0.041, 6.070e-7
-0.040, 6.071e-7
-0.039, 6.071e-7
-0.038, 6.070e-7
-0.037, 6.070e-7
-0.036, 6.068e-7
-0.035, 6.066e-7
-0.034, 6.063e-7
-0.033, 6.061e-7
-0.032, 6.059e-7
-0.031, 6.059e-7
-0.030, 6.060e-7
-0.029, 6.060e-7
-0.028, 6.060e-7
-0.027, 6.061e-7
-0.026, 6.063e-7
-0.025, 6.065e-7
-0.024, 6.065e-7
-0.023, 6.063e-7
-0.022, 6.059e-7
-0.021, 6.054e-7
-0.020, 6.050e-7
-0.019, 6.047e-7
-0.018, 6.046e-7
-0.017, 6.046e-7
-0.016, 6.046e-7
-0.015, 6.046e-7
-0.014, 6.046e-7
-0.013, 6.046e-7
-0.012, 6.046e-7
-0.011, 6.045e-7
-0.010, 6.044e-7
-0.009, 6.043e-7
-0.008, 6.042e-7
-0.007, 6.041e-7
-0.006, 6.040e-7
-0.005, 6.037e-7
-0.004, 6.035e-7
-0.003, 6.035e-7
-0.002, 6.038e-7
-0.001, 6.045e-7
-0.000, 6.051e-7
0.001, 6.052e-7
0.002, 6.049e-7
0.003, 6.042e-7
0.004, 6.036e-7
0.005, 6.032e-7
0.006, 6.029e-7
0.007, 6.029e-7
0.008, 6.029e-7
0.009, 6.030e-7
0.010, 6.031e-7
0.011, 6.032e-7
0.012, 6.031e-7
0.013, 6.029e-7
0.014, 6.027e-7
0.015, 6.026e-7
0.016, 6.024e-7
0.017, 6.023e-7
0.018, 6.021e-7
0.019, 6.019e-7
0.020, 6.019e-7
0.021, 6.019e-7
0.022, 6.018e-7
0.023, 6.019e-7
0.024, 6.019e-7
0.025, 6.020e-7
0.026, 6.021e-7
0.027, 6.021e-7
0.028, 6.019e-7
0.029, 6.016e-7
0.030, 6.012e-7
0.031, 6.010e-7
0.032, 6.008e-7
0.033, 6.010e-7
0.034, 6.011e-7
0.035, 6.010e-7
0.036, 6.008e-7
0.037, 6.008e-7
0.038, 6.006e-7
0.039, 6.006e-7
0.040, 6.004e-7
0.041, 6.003e-7
0.042, 6.002e-7
0.043, 6.002e-7
0.044, 6.000e-7
0.045, 5.998e-7
0.046, 5.995e-7
0.047, 5.993e-7
0.048, 5.991e-7
0.049, 5.992e-7
0.050, 5.994e-7
0.051, 5.996e-7
0.052, 5.996e-7
0.053, 5.996e-7
0.054, 5.994e-7
0.055, 5.991e-7
0.056, 5.989e-7
0.057, 5.988e-7
0.058, 5.986e-7
0.059, 5.986e-7
0.060, 5.987e-7
0.061, 5.988e-7
0.062, 5.989e-7
0.063, 5.989e-7
0.064, 5.987e-7
0.065, 5.987e-7
0.066, 5.986e-7
0.067, 5.988e-7
0.068, 5.989e-7
0.069, 5.990e-7
0.070, 5.987e-7
0.071, 5.985e-7
0.072, 5.981e-7
0.073, 5.979e-7
0.074, 5.977e-7
0.075, 5.978e-7
0.076, 5.979e-7
0.077, 5.983e-7
0.078, 5.985e-7
0.079, 5.986e-7
0.080, 5.984e-7
0.081, 5.981e-7
0.082, 5.977e-7
0.083, 5.974e-7
0.084, 5.971e-7
0.085, 5.972e-7
0.086, 5.971e-7
0.087, 5.973e-7
0.088, 5.973e-7
0.089, 5.975e-7
0.090, 5.974e-7
0.091, 5.976e-7
0.092, 5.975e-7
0.093, 5.973e-7
0.094, 5.970e-7
0.095, 5.969e-7
0.096, 5.966e-7
0.097, 5.966e-7
0.098, 5.966e-7
0.099, 5.968e-7
0.100, 5.969e-7
0.101, 5.972e-7
0.102, 5.972e-7
0.103, 5.972e-7
0.104, 5.971e-7
0.105, 5.969e-7
0.106, 5.965e-7
0.107, 5.963e-7
0.108, 5.962e-7
0.109, 5.961e-7
0.110, 5.961e-7
0.111, 5.963e-7
0.112, 5.963e-7
0.113, 5.966e-7
0.114, 5.967e-7
0.115, 5.969e-7
0.116, 5.968e-7
0.117, 5.968e-7
0.118, 5.965e-7
0.119, 5.965e-7
0.120, 5.965e-7
0.121, 5.967e-7
0.122, 5.968e-7
0.123, 5.969e-7
0.124, 5.969e-7
0.125, 5.969e-7
0.126, 5.969e-7
0.127, 5.973e-7
0.128, 5.975e-7
0.129, 5.977e-7
0.130, 5.977e-7
0.131, 5.977e-7
0.132, 5.975e-7
0.133, 5.975e-7
0.134, 5.973e-7
0.135, 5.972e-7
0.136, 5.972e-7
0.137, 5.974e-7
0.138, 5.975e-7
0.139, 5.978e-7
0.140, 5.979e-7
0.141, 5.980e-7
0.142, 5.980e-7
0.143, 5.981e-7
0.144, 5.980e-7
0.145, 5.982e-7
0.146, 5.981e-7
0.147, 5.982e-7
0.148, 5.981e-7
0.149, 5.982e-7
0.150, 5.982e-7
0.151, 5.985e-7
0.152, 5.990e-7
0.153, 5.996e-7
0.154, 6.000e-7
0.155, 6.003e-7
0.156, 6.002e-7
0.157, 6.002e-7
0.158, 6.000e-7
0.159, 6.000e-7
0.160, 5.998e-7
0.161, 5.998e-7
0.162, 5.998e-7
0.163, 6.003e-7
0.164, 6.008e-7
0.165, 6.014e-7
0.166, 6.016e-7
0.167, 6.018e-7
0.168, 6.017e-7
0.169, 6.018e-7
0.170, 6.018e-7
0.171, 6.020e-7
0.172, 6.019e-7
0.173, 6.020e-7
0.174, 6.021e-7
0.175, 6.025e-7
0.176, 6.029e-7
0.177, 6.034e-7
0.178, 6.037e-7
0.179, 6.041e-7
0.180, 6.043e-7
0.181, 6.046e-7
0.182, 6.046e-7
0.183, 6.048e-7
0.184, 6.047e-7
0.185, 6.048e-7
0.186, 6.049e-7
0.187, 6.053e-7
0.188, 6.056e-7
0.189, 6.060e-7
0.190, 6.062e-7
0.191, 6.065e-7
0.192, 6.067e-7
0.193, 6.071e-7
0.194, 6.072e-7
0.195, 6.075e-7
0.196, 6.077e-7
0.197, 6.080e-7
0.198, 6.081e-7
0.199, 6.084e-7
0.200, 6.085e-7
0.201, 6.089e-7
0.202, 6.089e-7
0.203, 6.090e-7
0.204, 6.090e-7
0.205, 6.090e-7
0.206, 6.092e-7
0.207, 6.097e-7
0.208, 6.099e-7
0.209, 6.103e-7
0.210, 6.103e-7
0.211, 6.105e-7
0.212, 6.106e-7
0.213, 6.111e-7
0.214, 6.114e-7
0.215, 6.118e-7
0.216, 6.120e-7
0.217, 6.123e-7
0.218, 6.125e-7
0.219, 6.129e-7
0.220, 6.131e-7
0.221, 6.134e-7
0.222, 6.135e-7
0.223, 6.137e-7
0.224, 6.137e-7
0.225, 6.140e-7
0.226, 6.143e-7
0.227, 6.147e-7
0.228, 6.151e-7
0.229, 6.155e-7
0.230, 6.157e-7
0.231, 6.160e-7
0.232, 6.160e-7
0.233, 6.162e-7
0.234, 6.162e-7
0.235, 6.163e-7
0.236, 6.163e-7
0.237, 6.165e-7
0.238, 6.168e-7
0.239, 6.172e-7
0.240, 6.174e-7
0.241, 6.177e-7
0.242, 6.178e-7
0.243, 6.180e-7
0.244, 6.181e-7
0.245, 6.184e-7
0.246, 6.186e-7
0.247, 6.188e-7
0.248, 6.189e-7
0.249, 6.190e-7
0.250, 6.190e-7
0.251, 6.192e-7
0.252, 6.193e-7
0.253, 6.196e-7
0.254, 6.197e-7
0.255, 6.201e-7
0.256, 6.203e-7
0.257, 6.206e-7
0.258, 6.207e-7
0.259, 6.209e-7
0.260, 6.209e-7
0.261, 6.209e-7
0.262, 6.209e-7
0.263, 6.210e-7
0.264, 6.211e-7
0.265, 6.213e-7
0.266, 6.215e-7
0.267, 6.217e-7
0.268, 6.217e-7
0.269, 6.219e-7
0.270, 6.221e-7
0.271, 6.225e-7
0.272, 6.226e-7
0.273, 6.227e-7
0.274, 6.226e-7
0.275, 6.226e-7
0.276, 6.226e-7
0.277, 6.228e-7
0.278, 6.230e-7
0.279, 6.234e-7
0.280, 6.236e-7
0.281, 6.238e-7
0.282, 6.239e-7
0.283, 6.241e-7
0.284, 6.242e-7
0.285, 6.242e-7
0.286, 6.243e-7
0.287, 6.244e-7
0.288, 6.244e-7
0.289, 6.246e-7
0.290, 6.247e-7
0.291, 6.250e-7
0.292, 6.251e-7
0.293, 6.253e-7
0.294, 6.253e-7
0.295, 6.254e-7
0.296, 6.255e-7
0.297, 6.257e-7
0.298, 6.258e-7
0.299, 6.259e-7
0.300, 6.259e-7
0.301, 6.260e-7
0.302, 6.261e-7
0.303, 6.264e-7
0.304, 6.268e-7
0.305, 6.271e-7
0.306, 6.272e-7
0.307, 6.274e-7
0.308, 6.274e-7
0.309, 6.276e-7
0.310, 6.277e-7
0.311, 6.279e-7
0.312, 6.280e-7
0.313, 6.281e-7
0.314, 6.281e-7
0.315, 6.282e-7
0.316, 6.284e-7
0.317, 6.287e-7
0.318, 6.289e-7
0.319, 6.292e-7
0.320, 6.293e-7
0.321, 6.294e-7
0.322, 6.295e-7
0.323, 6.297e-7
0.324, 6.298e-7
0.325, 6.300e-7
0.326, 6.301e-7
0.327, 6.304e-7
0.328, 6.306e-7
0.329, 6.309e-7
0.330, 6.311e-7
0.331, 6.316e-7
0.332, 6.320e-7
0.333, 6.324e-7
0.334, 6.326e-7
0.335, 6.326e-7
0.336, 6.324e-7
0.337, 6.324e-7
0.338, 6.324e-7
0.339, 6.325e-7
0.340, 6.329e-7
0.341, 6.335e-7
0.342, 6.339e-7
0.343, 6.343e-7
0.344, 6.345e-7
0.345, 6.349e-7
0.346, 6.351e-7
0.347, 6.356e-7
0.348, 6.359e-7
0.349, 6.363e-7
0.350, 6.366e-7
0.351, 6.370e-7
0.352, 6.372e-7
0.353, 6.375e-7
0.354, 6.378e-7
0.355, 6.382e-7
0.356, 6.388e-7
0.357, 6.395e-7
0.358, 6.401e-7
0.359, 6.406e-7
0.360, 6.409e-7
0.361, 6.411e-7
0.362, 6.413e-7
0.363, 6.418e-7
0.364, 6.423e-7
0.365, 6.427e-7
0.366, 6.432e-7
0.367, 6.439e-7
0.368, 6.443e-7
0.369, 6.450e-7
0.370, 6.453e-7
0.371, 6.457e-7
0.372, 6.461e-7
0.373, 6.467e-7
0.374, 6.473e-7
0.375, 6.481e-7
0.376, 6.487e-7
0.377, 6.494e-7
0.378, 6.498e-7
0.379, 6.504e-7
0.380, 6.510e-7
0.381, 6.517e-7
0.382, 6.525e-7
0.383, 6.535e-7
0.384, 6.544e-7
0.385, 6.555e-7
0.386, 6.562e-7
0.387, 6.568e-7
0.388, 6.572e-7
0.389, 6.577e-7
0.390, 6.582e-7
0.391, 6.589e-7
0.392, 6.596e-7
0.393, 6.605e-7
0.394, 6.613e-7
0.395, 6.624e-7
0.396, 6.636e-7
0.397, 6.646e-7
0.398, 6.655e-7
0.399, 6.662e-7
0.400, 6.668e-7
0.401, 6.676e-7
0.402, 6.684e-7
0.403, 6.693e-7
0.404, 6.701e-7
0.405, 6.709e-7
0.406, 6.719e-7
0.407, 6.731e-7
0.408, 6.747e-7
0.409, 6.766e-7
0.410, 6.782e-7
0.411, 6.792e-7
0.412, 6.798e-7
0.413, 6.802e-7
0.414, 6.808e-7
0.415, 6.818e-7
0.416, 6.828e-7
0.417, 6.839e-7
0.418, 6.849e-7
0.419, 6.859e-7
0.420, 6.869e-7
0.421, 6.881e-7
0.422, 6.894e-7
0.423, 6.908e-7
0.424, 6.921e-7
0.425, 6.936e-7
0.426, 6.948e-7
0.427, 6.959e-7
0.428, 6.970e-7
0.429, 6.980e-7
0.430, 6.993e-7
0.431, 7.006e-7
0.432, 7.017e-7
0.433, 7.029e-7
0.434, 7.043e-7
0.435, 7.059e-7
0.436, 7.077e-7
0.437, 7.092e-7
0.438, 7.102e-7
0.439, 7.110e-7
0.440, 7.117e-7
0.441, 7.126e-7
0.442, 7.137e-7
0.443, 7.151e-7
0.444, 7.163e-7
0.445, 7.178e-7
0.446, 7.191e-7
0.447, 7.206e-7
0.448, 7.220e-7
0.449, 7.235e-7
0.450, 7.249e-7
0.451, 7.261e-7
0.452, 7.271e-7
0.453, 7.283e-7
0.454, 7.293e-7
0.455, 7.305e-7
0.456, 7.316e-7
0.457, 7.328e-7
0.458, 7.340e-7
0.459, 7.354e-7
0.460, 7.367e-7
0.461, 7.380e-7
0.462, 7.392e-7
0.463, 7.403e-7
0.464, 7.413e-7
0.465, 7.426e-7
0.466, 7.437e-7
0.467, 7.447e-7
0.468, 7.457e-7
0.469, 7.467e-7
0.470, 7.478e-7
0.471, 7.491e-7
0.472, 7.503e-7
0.473, 7.514e-7
0.474, 7.525e-7
0.475, 7.537e-7
0.476, 7.549e-7
0.477, 7.561e-7
0.478, 7.574e-7
0.479, 7.586e-7
0.480, 7.598e-7
0.481, 7.612e-7
0.482, 7.625e-7
0.483, 7.638e-7
0.484, 7.651e-7
0.485, 7.668e-7
0.486, 7.686e-7
0.487, 7.704e-7
0.488, 7.719e-7
0.489, 7.731e-7
0.490, 7.742e-7
0.491, 7.755e-7
0.492, 7.770e-7
0.493, 7.786e-7
0.494, 7.803e-7
0.495, 7.821e-7
0.496, 7.841e-7
0.497, 7.864e-7
0.498, 7.888e-7
0.499, 7.915e-7
