Pomiar CV tla z tlenem
Potential/V, Current/A
0.500, 1.653e-7
0.499, 1.462e-7
0.498, 1.312e-7
0.497, 1.204e-7
0.496, 1.153e-7
0.495, 1.126e-7
0.494, 1.104e-7
0.493, 1.070e-7
0.492, 1.039e-7
0.491, 1.008e-7
0.490, 9.792e-8
0.489, 9.497e-8
0.488, 9.216e-8
0.487, 8.952e-8
0.486, 8.727e-8
0.485, 8.521e-8
0.484, 8.331e-8
0.483, 8.136e-8
0.482, 7.928e-8
0.481, 7.722e-8
0.480, 7.541e-8
0.479, 7.352e-8
0.478, 7.175e-8
0.477, 6.996e-8
0.476, 6.808e-8
0.475, 6.621e-8
0.474, 6.455e-8
0.473, 6.282e-8
0.472, 6.122e-8
0.471, 5.960e-8
0.470, 5.805e-8
0.469, 5.657e-8
0.468, 5.528e-8
0.467, 5.401e-8
0.466, 5.280e-8
0.465, 5.158e-8
0.464, 5.032e-8
0.463, 4.883e-8
0.462, 4.737e-8
0.461, 4.592e-8
0.460, 4.471e-8
0.459, 4.373e-8
0.458, 4.299e-8
0.457, 4.218e-8
0.456, 4.142e-8
0.455, 4.056e-8
0.454, 3.964e-8
0.453, 3.859e-8
0.452, 3.765e-8
0.451, 3.669e-8
0.450, 3.590e-8
0.449, 3.513e-8
0.448, 3.448e-8
0.447, 3.380e-8
0.446, 3.318e-8
0.445, 3.240e-8
0.444, 3.160e-8
0.443, 3.070e-8
0.442, 3.000e-8
0.441, 2.932e-8
0.440, 2.882e-8
0.439, 2.813e-8
0.438, 2.740e-8
0.437, 2.657e-8
0.436, 2.591e-8
0.435, 2.535e-8
0.434, 2.508e-8
0.433, 2.470e-8
0.432, 2.439e-8
0.431, 2.395e-8
0.430, 2.357e-8
0.429, 2.321e-8
0.428, 2.286e-8
0.427, 2.234e-8
0.426, 2.180e-8
0.425, 2.107e-8
0.424, 2.039e-8
0.423, 1.983e-8
0.422, 1.945e-8
0.421, 1.909e-8
0.420, 1.880e-8
0.419, 1.847e-8
0.418, 1.818e-8
0.417, 1.790e-8
0.416, 1.769e-8
0.415, 1.736e-8
0.414, 1.699e-8
0.413, 1.645e-8
0.412, 1.582e-8
0.411, 1.511e-8
0.410, 1.459e-8
0.409, 1.433e-8
0.408, 1.437e-8
0.407, 1.438e-8
0.406, 1.430e-8
0.405, 1.396e-8
0.404, 1.363e-8
0.403, 1.339e-8
0.402, 1.320e-8
0.401, 1.293e-8
0.400, 1.258e-8
0.399, 1.203e-8
0.398, 1.154e-8
0.397, 1.116e-8
0.396, 1.092e-8
0.395, 1.076e-8
0.394, 1.066e-8
0.393, 1.044e-8
0.392, 1.028e-8
0.391, 1.013e-8
0.390, 9.973e-9
0.389, 9.739e-9
0.388, 9.438e-9
0.387, 8.956e-9
0.386, 8.460e-9
0.385, 8.001e-9
0.384, 7.689e-9
0.383, 7.511e-9
0.382, 7.453e-9
0.381, 7.400e-9
0.380, 7.327e-9
0.379, 7.168e-9
0.378, 7.051e-9
0.377, 6.824e-9
0.376, 6.579e-9
0.375, 6.351e-9
0.374, 6.131e-9
0.373, 5.823e-9
0.372, 5.590e-9
0.371, 5.233e-9
0.370, 4.904e-9
0.369, 4.649e-9
0.368, 4.513e-9
0.367, 4.430e-9
0.366, 4.458e-9
0.365, 4.372e-9
0.364, 4.204e-9
0.363, 3.964e-9
0.362, 3.676e-9
0.361, 3.310e-9
0.360, 2.921e-9
0.359, 2.487e-9
0.358, 2.229e-9
0.357, 2.101e-9
0.356, 2.074e-9
0.355, 2.003e-9
0.354, 1.853e-9
0.353, 1.597e-9
0.352, 1.482e-9
0.351, 1.336e-9
0.350, 1.226e-9
0.349, 9.939e-10
0.348, 6.537e-10
0.347, 2.627e-10
0.346, 1.283e-10
0.345, 1.442e-10
0.344, 2.778e-10
0.343, 2.855e-10
0.342, 1.123e-10
0.341, -2.983e-10
0.340, -6.303e-10
0.339, -9.366e-10
0.338, -1.065e-9
0.337, -1.170e-9
0.336, -1.294e-9
0.335, -1.668e-9
0.334, -2.130e-9
0.333, -2.753e-9
0.332, -3.096e-9
0.331, -3.255e-9
0.330, -3.116e-9
0.329, -2.831e-9
0.328, -2.500e-9
0.327, -2.450e-9
0.326, -2.516e-9
0.325, -2.915e-9
0.324, -3.379e-9
0.323, -3.735e-9
0.322, -3.943e-9
0.321, -4.156e-9
0.320, -4.284e-9
0.319, -4.564e-9
0.318, -4.823e-9
0.317, -4.998e-9
0.316, -5.001e-9
0.315, -4.954e-9
0.314, -4.840e-9
0.313, -4.877e-9
0.312, -4.998e-9
0.311, -5.267e-9
0.310, -5.477e-9
0.309, -5.790e-9
0.308, -6.066e-9
0.307, -6.391e-9
0.306, -6.671e-9
0.305, -6.954e-9
0.304, -6.938e-9
0.303, -6.877e-9
0.302, -6.723e-9
0.301, -6.757e-9
0.300, -6.934e-9
0.299, -7.277e-9
0.298, -7.381e-9
0.297, -7.421e-9
0.296, -7.401e-9
0.295, -7.508e-9
0.294, -7.672e-9
0.293, -8.085e-9
0.292, -8.350e-9
0.291, -8.518e-9
0.290, -8.635e-9
0.289, -8.663e-9
0.288, -8.660e-9
0.287, -8.927e-9
0.286, -9.181e-9
0.285, -9.497e-9
0.284, -9.891e-9
0.283, -1.023e-8
0.282, -1.046e-8
0.281, -1.058e-8
0.280, -1.062e-8
0.279, -1.069e-8
0.278, -1.069e-8
0.277, -1.075e-8
0.276, -1.083e-8
0.275, -1.094e-8
0.274, -1.131e-8
0.273, -1.176e-8
0.272, -1.196e-8
0.271, -1.210e-8
0.270, -1.210e-8
0.269, -1.211e-8
0.268, -1.226e-8
0.267, -1.247e-8
0.266, -1.252e-8
0.265, -1.254e-8
0.264, -1.243e-8
0.263, -1.240e-8
0.262, -1.243e-8
0.261, -1.273e-8
0.260, -1.317e-8
0.259, -1.378e-8
0.258, -1.442e-8
0.257, -1.504e-8
0.256, -1.537e-8
0.255, -1.560e-8
0.254, -1.562e-8
0.253, -1.558e-8
0.252, -1.552e-8
0.251, -1.563e-8
0.250, -1.580e-8
0.249, -1.614e-8
0.248, -1.651e-8
0.247, -1.685e-8
0.246, -1.705e-8
0.245, -1.735e-8
0.244, -1.762e-8
0.243, -1.793e-8
0.242, -1.820e-8
0.241, -1.850e-8
0.240, -1.868e-8
0.239, -1.896e-8
0.238, -1.915e-8
0.237, -1.933e-8
0.236, -1.949e-8
0.235, -1.980e-8
0.234, -2.018e-8
0.233, -2.081e-8
0.232, -2.140e-8
0.231, -2.189e-8
0.230, -2.213e-8
0.229, -2.240e-8
0.228, -2.262e-8
0.227, -2.297e-8
0.226, -2.333e-8
0.225, -2.364e-8
0.224, -2.392e-8
0.223, -2.448e-8
0.222, -2.498e-8
0.221, -2.536e-8
0.220, -2.565e-8
0.219, -2.583e-8
0.218, -2.602e-8
0.217, -2.647e-8
0.216, -2.695e-8
0.215, -2.738e-8
0.214, -2.765e-8
0.213, -2.790e-8
0.212, -2.811e-8
0.211, -2.852e-8
0.210, -2.917e-8
0.209, -2.992e-8
0.208, -3.040e-8
0.207, -3.077e-8
0.206, -3.086e-8
0.205, -3.102e-8
0.204, -3.142e-8
0.203, -3.214e-8
0.202, -3.279e-8
0.201, -3.349e-8
0.200, -3.394e-8
0.199, -3.440e-8
0.198, -3.485e-8
0.197, -3.544e-8
0.196, -3.591e-8
0.195, -3.644e-8
0.194, -3.692e-8
0.193, -3.740e-8
0.192, -3.782e-8
0.191, -3.838e-8
0.190, -3.890e-8
0.189, -3.953e-8
0.188, -4.015e-8
0.187, -4.062e-8
0.186, -4.085e-8
0.185, -4.118e-8
0.184, -4.151e-8
0.183, -4.200e-8
0.182, -4.263e-8
0.181, -4.339e-8
0.180, -4.402e-8
0.179, -4.463e-8
0.178, -4.508e-8
0.177, -4.550e-8
0.176, -4.583e-8
0.175, -4.626e-8
0.174, -4.668e-8
0.173, -4.713e-8
0.172, -4.773e-8
0.171, -4.843e-8
0.170, -4.890e-8
0.169, -4.927e-8
0.168, -4.965e-8
0.167, -4.999e-8
0.166, -5.053e-8
0.165, -5.125e-8
0.164, -5.180e-8
0.163, -5.227e-8
0.162, -5.285e-8
0.161, -5.343e-8
0.160, -5.397e-8
0.159, -5.458e-8
0.158, -5.490e-8
0.157, -5.521e-8
0.156, -5.570e-8
0.155, -5.652e-8
0.154, -5.735e-8
0.153, -5.814e-8
0.152, -5.850e-8
0.151, -5.867e-8
0.150, -5.856e-8
0.149, -5.866e-8
0.148, -5.873e-8
0.147, -5.911e-8
0.146, -5.957e-8
0.145, -6.019e-8
0.144, -6.068e-8
0.143, -6.128e-8
0.142, -6.162e-8
0.141, -6.207e-8
0.140, -6.246e-8
0.139, -6.291e-8
0.138, -6.324e-8
0.137, -6.361e-8
0.136, -6.381e-8
0.135, -6.408e-8
0.134, -6.428e-8
0.133, -6.460e-8
0.132, -6.485e-8
0.131, -6.527e-8
0.130, -6.580e-8
0.129, -6.645e-8
0.128, -6.690e-8
0.127, -6.731e-8
0.126, -6.746e-8
0.125, -6.758e-8
0.124, -6.753e-8
0.123, -6.755e-8
0.122, -6.747e-8
0.121, -6.772e-8
0.120, -6.810e-8
0.119, -6.866e-8
0.118, -6.910e-8
0.117, -6.959e-8
0.116, -6.991e-8
0.115, -7.018e-8
0.114, -7.027e-8
0.113, -7.040e-8
0.112, -7.045e-8
0.111, -7.078e-8
0.110, -7.115e-8
0.109, -7.143e-8
0.108, -7.162e-8
0.107, -7.188e-8
0.106, -7.207e-8
0.105, -7.251e-8
0.104, -7.294e-8
0.103, -7.335e-8
0.102, -7.356e-8
0.101, -7.373e-8
0.100, -7.372e-8
0.099, -7.377e-8
0.098, -7.393e-8
0.097, -7.435e-8
0.096, -7.465e-8
0.095, -7.496e-8
0.094, -7.512e-8
0.093, -7.537e-8
0.092, -7.568e-8
0.091, -7.611e-8
0.090, -7.634e-8
0.089, -7.660e-8
0.088, -7.687e-8
0.087, -7.728e-8
0.086, -7.749e-8
0.085, -7.757e-8
0.084, -7.744e-8
0.083, -7.745e-8
0.082, -7.755e-8
0.081, -7.782e-8
0.080, -7.805e-8
0.079, -7.846e-8
0.078, -7.897e-8
0.077, -7.962e-8
0.076, -7.995e-8
0.075, -8.019e-8
0.074, -8.017e-8
0.073, -8.019e-8
0.072, -8.023e-8
0.071, -8.039e-8
0.070, -8.039e-8
0.069, -8.064e-8
0.068, -8.088e-8
0.067, -8.135e-8
0.066, -8.184e-8
0.065, -8.234e-8
0.064, -8.263e-8
0.063, -8.291e-8
0.062, -8.311e-8
0.061, -8.346e-8
0.060, -8.378e-8
0.059, -8.411e-8
0.058, -8.427e-8
0.057, -8.443e-8
0.056, -8.454e-8
0.055, -8.476e-8
0.054, -8.499e-8
0.053, -8.551e-8
0.052, -8.603e-8
0.051, -8.658e-8
0.050, -8.682e-8
0.049, -8.691e-8
0.048, -8.674e-8
0.047, -8.685e-8
0.046, -8.705e-8
0.045, -8.748e-8
0.044, -8.782e-8
0.043, -8.822e-8
0.042, -8.844e-8
0.041, -8.879e-8
0.040, -8.915e-8
0.039, -8.964e-8
0.038, -8.993e-8
0.037, -9.024e-8
0.036, -9.041e-8
0.035, -9.062e-8
0.034, -9.092e-8
0.033, -9.129e-8
0.032, -9.144e-8
0.031, -9.174e-8
0.030, -9.193e-8
0.029, -9.229e-8
0.028, -9.276e-8
0.027, -9.331e-8
0.026, -9.366e-8
0.025, -9.401e-8
0.024, -9.413e-8
0.023, -9.432e-8
0.022, -9.445e-8
0.021, -9.468e-8
0.020, -9.480e-8
0.019, -9.494e-8
0.018, -9.511e-8
0.017, -9.544e-8
0.016, -9.575e-8
0.015, -9.624e-8
0.014, -9.663e-8
0.013, -9.701e-8
0.012, -9.739e-8
0.011, -9.777e-8
0.010, -9.797e-8
0.009, -9.819e-8
0.008, -9.825e-8
0.007, -9.834e-8
0.006, -9.854e-8
0.005, -9.891e-8
0.004, -9.933e-8
0.003, -9.992e-8
0.002, -1.005e-7
0.001, -1.009e-7
0.000, -1.012e-7
-0.001, -1.013e-7
-0.002, -1.014e-7
-0.003, -1.015e-7
-0.004, -1.017e-7
-0.005, -1.020e-7
-0.006, -1.023e-7
-0.007, -1.026e-7
-0.008, -1.028e-7
-0.009, -1.031e-7
-0.010, -1.033e-7
-0.011, -1.036e-7
-0.012, -1.038e-7
-0.013, -1.040e-7
-0.014, -1.044e-7
-0.015, -1.048e-7
-0.016, -1.052e-7
-0.017, -1.056e-7
-0.018, -1.058e-7
-0.019, -1.060e-7
-0.020, -1.061e-7
-0.021, -1.063e-7
-0.022, -1.065e-7
-0.023, -1.069e-7
-0.024, -1.073e-7
-0.025, -1.079e-7
-0.026, -1.082e-7
-0.027, -1.084e-7
-0.028, -1.085e-7
-0.029, -1.086e-7
-0.030, -1.088e-7
-0.031, -1.091e-7
-0.032, -1.093e-7
-0.033, -1.096e-7
-0.034, -1.099e-7
-0.035, -1.102e-7
-0.036, -1.105e-7
-0.037, -1.110e-7
-0.038, -1.113e-7
-0.039, -1.118e-7
-0.040, -1.122e-7
-0.041, -1.125e-7
-0.042, -1.127e-7
-0.043, -1.129e-7
-0.044, -1.129e-7
-0.045, -1.130e-7
-0.046, -1.133e-7
-0.047, -1.138e-7
-0.048, -1.143e-7
-0.049, -1.150e-7
-0.050, -1.155e-7
-0.051, -1.160e-7
-0.052, -1.163e-7
-0.053, -1.166e-7
-0.054, -1.168e-7
-0.055, -1.171e-7
-0.056, -1.172e-7
-0.057, -1.174e-7
-0.058, -1.176e-7
-0.059, -1.181e-7
-0.060, -1.187e-7
-0.061, -1.193e-7
-0.062, -1.198e-7
-0.063, -1.203e-7
-0.064, -1.205e-7
-0.065, -1.208e-7
-0.066, -1.210e-7
-0.067, -1.212e-7
-0.068, -1.213e-7
-0.069, -1.217e-7
-0.070, -1.221e-7
-0.071, -1.227e-7
-0.072, -1.233e-7
-0.073, -1.239e-7
-0.074, -1.245e-7
-0.075, -1.252e-7
-0.076, -1.259e-7
-0.077, -1.266e-7
-0.078, -1.270e-7
-0.079, -1.274e-7
-0.080, -1.276e-7
-0.081, -1.279e-7
-0.082, -1.282e-7
-0.083, -1.287e-7
-0.084, -1.292e-7
-0.085, -1.299e-7
-0.086, -1.305e-7
-0.087, -1.312e-7
-0.088, -1.316e-7
-0.089, -1.321e-7
-0.090, -1.325e-7
-0.091, -1.330e-7
-0.092, -1.335e-7
-0.093, -1.341e-7
-0.094, -1.345e-7
-0.095, -1.351e-7
-0.096, -1.356e-7
-0.097, -1.362e-7
-0.098, -1.369e-7
-0.099, -1.376e-7
-0.100, -1.382e-7
-0.101, -1.389e-7
-0.102, -1.394e-7
-0.103, -1.400e-7
-0.104, -1.405e-7
-0.105, -1.411e-7
-0.106, -1.417e-7
-0.107, -1.425e-7
-0.108, -1.431e-7
-0.109, -1.437e-7
-0.110, -1.443e-7
-0.111, -1.450e-7
-0.112, -1.457e-7
-0.113, -1.466e-7
-0.114, -1.473e-7
-0.115, -1.480e-7
-0.116, -1.486e-7
-0.117, -1.492e-7
-0.118, -1.497e-7
-0.119, -1.504e-7
-0.120, -1.511e-7
-0.121, -1.518e-7
-0.122, -1.524e-7
-0.123, -1.531e-7
-0.124, -1.538e-7
-0.125, -1.548e-7
-0.126, -1.560e-7
-0.127, -1.571e-7
-0.128, -1.579e-7
-0.129, -1.586e-7
-0.130, -1.590e-7
-0.131, -1.595e-7
-0.132, -1.601e-7
-0.133, -1.608e-7
-0.134, -1.615e-7
-0.135, -1.623e-7
-0.136, -1.631e-7
-0.137, -1.640e-7
-0.138, -1.646e-7
-0.139, -1.651e-7
-0.140, -1.658e-7
-0.141, -1.666e-7
-0.142, -1.674e-7
-0.143, -1.684e-7
-0.144, -1.690e-7
-0.145, -1.699e-7
-0.146, -1.707e-7
-0.147, -1.716e-7
-0.148, -1.725e-7
-0.149, -1.734e-7
-0.150, -1.741e-7
-0.151, -1.750e-7
-0.152, -1.760e-7
-0.153, -1.773e-7
-0.154, -1.784e-7
-0.155, -1.794e-7
-0.156, -1.802e-7
-0.157, -1.807e-7
-0.158, -1.811e-7
-0.159, -1.819e-7
-0.160, -1.825e-7
-0.161, -1.835e-7
-0.162, -1.846e-7
-0.163, -1.856e-7
-0.164, -1.865e-7
-0.165, -1.876e-7
-0.166, -1.885e-7
-0.167, -1.894e-7
-0.168, -1.904e-7
-0.169, -1.914e-7
-0.170, -1.923e-7
-0.171, -1.933e-7
-0.172, -1.941e-7
-0.173, -1.948e-7
-0.174, -1.956e-7
-0.175, -1.967e-7
-0.176, -1.978e-7
-0.177, -1.992e-7
-0.178, -2.004e-7
-0.179, -2.014e-7
-0.180, -2.023e-7
-0.181, -2.033e-7
-0.182, -2.042e-7
-0.183, -2.053e-7
-0.184, -2.062e-7
-0.185, -2.071e-7
-0.186, -2.079e-7
-0.187, -2.090e-7
-0.188, -2.100e-7
-0.189, -2.110e-7
-0.190, -2.118e-7
-0.191, -2.125e-7
-0.192, -2.133e-7
-0.193, -2.143e-7
-0.194, -2.152e-7
-0.195, -2.162e-7
-0.196, -2.169e-7
-0.197, -2.176e-7
-0.198, -2.185e-7
-0.199, -2.195e-7
-0.200, -2.205e-7
-0.201, -2.214e-7
-0.202, -2.221e-7
-0.203, -2.228e-7
-0.204, -2.234e-7
-0.205, -2.243e-7
-0.206, -2.252e-7
-0.207, -2.263e-7
-0.208, -2.271e-7
-0.209, -2.281e-7
-0.210, -2.289e-7
-0.211, -2.296e-7
-0.212, -2.303e-7
-0.213, -2.312e-7
-0.214, -2.322e-7
-0.215, -2.334e-7
-0.216, -2.346e-7
-0.217, -2.357e-7
-0.218, -2.365e-7
-0.219, -2.374e-7
-0.220, -2.383e-7
-0.221, -2.393e-7
-0.222, -2.404e-7
-0.223, -2.415e-7
-0.224, -2.424e-7
-0.225, -2.434e-7
-0.226, -2.445e-7
-0.227, -2.458e-7
-0.228, -2.475e-7
-0.229, -2.493e-7
-0.230, -2.510e-7
-0.231, -2.525e-7
-0.232, -2.538e-7
-0.233, -2.551e-7
-0.234, -2.562e-7
-0.235, -2.574e-7
-0.236, -2.589e-7
-0.237, -2.607e-7
-0.238, -2.627e-7
-0.239, -2.649e-7
-0.240, -2.668e-7
-0.241, -2.687e-7
-0.242, -2.706e-7
-0.243, -2.725e-7
-0.244, -2.746e-7
-0.245, -2.770e-7
-0.246, -2.792e-7
-0.247, -2.814e-7
-0.248, -2.836e-7
-0.249, -2.857e-7
-0.250, -2.877e-7
-0.251, -2.900e-7
-0.252, -2.924e-7
-0.253, -2.950e-7
-0.254, -2.979e-7
-0.255, -3.010e-7
-0.256, -3.040e-7
-0.257, -3.067e-7
-0.258, -3.092e-7
-0.259, -3.117e-7
-0.260, -3.141e-7
-0.261, -3.167e-7
-0.262, -3.191e-7
-0.263, -3.216e-7
-0.264, -3.242e-7
-0.265, -3.267e-7
-0.266, -3.292e-7
-0.267, -3.317e-7
-0.268, -3.339e-7
-0.269, -3.362e-7
-0.270, -3.383e-7
-0.271, -3.403e-7
-0.272, -3.421e-7
-0.273, -3.437e-7
-0.274, -3.452e-7
-0.275, -3.466e-7
-0.276, -3.481e-7
-0.277, -3.496e-7
-0.278, -3.510e-7
-0.279, -3.525e-7
-0.280, -3.540e-7
-0.281, -3.554e-7
-0.282, -3.568e-7
-0.283, -3.583e-7
-0.284, -3.599e-7
-0.285, -3.615e-7
-0.286, -3.634e-7
-0.287, -3.654e-7
-0.288, -3.678e-7
-0.289, -3.705e-7
-0.290, -3.734e-7
-0.291, -3.764e-7
-0.292, -3.794e-7
-0.293, -3.827e-7
-0.294, -3.862e-7
-0.295, -3.900e-7
-0.296, -3.939e-7
-0.297, -3.978e-7
-0.298, -4.016e-7
-0.299, -4.058e-7
-0.300, -4.097e-7
-0.301, -4.142e-7
-0.302, -4.191e-7
-0.303, -4.244e-7
-0.304, -4.299e-7
-0.305, -4.356e-7
-0.306, -4.410e-7
-0.307, -4.466e-7
-0.308, -4.520e-7
-0.309, -4.572e-7
-0.310, -4.621e-7
-0.311, -4.667e-7
-0.312, -4.712e-7
-0.313, -4.756e-7
-0.314, -4.800e-7
-0.315, -4.847e-7
-0.316, -4.897e-7
-0.317, -4.951e-7
-0.318, -5.008e-7
-0.319, -5.071e-7
-0.320, -5.136e-7
-0.321, -5.206e-7
-0.322, -5.278e-7
-0.323, -5.352e-7
-0.324, -5.427e-7
-0.325, -5.508e-7
-0.326, -5.590e-7
-0.327, -5.673e-7
-0.328, -5.752e-7
-0.329, -5.825e-7
-0.330, -5.892e-7
-0.331, -5.955e-7
-0.332, -6.016e-7
-0.333, -6.081e-7
-0.334, -6.151e-7
-0.335, -6.230e-7
-0.336, -6.317e-7
-0.337, -6.412e-7
-0.338, -6.513e-7
-0.339, -6.618e-7
-0.340, -6.727e-7
-0.341, -6.837e-7
-0.342, -6.945e-7
-0.343, -7.048e-7
-0.344, -7.141e-7
-0.345, -7.233e-7
-0.346, -7.329e-7
-0.347, -7.440e-7
-0.348, -7.569e-7
-0.349, -7.717e-7
-0.350, -7.873e-7
-0.351, -8.031e-7
-0.352, -8.176e-7
-0.353, -8.305e-7
-0.354, -8.419e-7
-0.355, -8.529e-7
-0.356, -8.646e-7
-0.357, -8.781e-7
-0.358, -8.931e-7
-0.359, -9.093e-7
-0.360, -9.256e-7
-0.361, -9.412e-7
-0.362, -9.556e-7
-0.363, -9.695e-7
-0.364, -9.840e-7
-0.365, -9.998e-7
-0.366, -1.017e-6
-0.367, -1.036e-6
-0.368, -1.054e-6
-0.369, -1.070e-6
-0.370, -1.085e-6
-0.371, -1.100e-6
-0.372, -1.117e-6
-0.373, -1.136e-6
-0.374, -1.156e-6
-0.375, -1.177e-6
-0.376, -1.197e-6
-0.377, -1.218e-6
-0.378, -1.242e-6
-0.379, -1.268e-6
-0.380, -1.293e-6
-0.381, -1.314e-6
-0.382, -1.332e-6
-0.383, -1.349e-6
-0.384, -1.367e-6
-0.385, -1.389e-6
-0.386, -1.413e-6
-0.387, -1.437e-6
-0.388, -1.461e-6
-0.389, -1.486e-6
-0.390, -1.513e-6
-0.391, -1.539e-6
-0.392, -1.562e-6
-0.393, -1.585e-6
-0.394, -1.609e-6
-0.395, -1.635e-6
-0.396, -1.663e-6
-0.397, -1.692e-6
-0.398, -1.722e-6
-0.399, -1.753e-6
-0.400, -1.782e-6
-0.401, -1.808e-6
-0.402, -1.830e-6
-0.403, -1.852e-6
-0.404, -1.875e-6
-0.405, -1.901e-6
-0.406, -1.929e-6
-0.407, -1.959e-6
-0.408, -1.989e-6
-0.409, -2.020e-6
-0.410, -2.051e-6
-0.411, -2.080e-6
-0.412, -2.109e-6
-0.413, -2.137e-6
-0.414, -2.168e-6
-0.415, -2.200e-6
-0.416, -2.234e-6
-0.417, -2.266e-6
-0.418, -2.296e-6
-0.419, -2.322e-6
-0.420, -2.347e-6
-0.421, -2.375e-6
-0.422, -2.405e-6
-0.423, -2.438e-6
-0.424, -2.472e-6
-0.425, -2.504e-6
-0.426, -2.536e-6
-0.427, -2.565e-6
-0.428, -2.594e-6
-0.429, -2.623e-6
-0.430, -2.655e-6
-0.431, -2.688e-6
-0.432, -2.722e-6
-0.433, -2.755e-6
-0.434, -2.785e-6
-0.435, -2.815e-6
-0.436, -2.844e-6
-0.437, -2.874e-6
-0.438, -2.905e-6
-0.439, -2.938e-6
-0.440, -2.970e-6
-0.441, -3.002e-6
-0.442, -3.033e-6
-0.443, -3.064e-6
-0.444, -3.095e-6
-0.445, -3.129e-6
-0.446, -3.166e-6
-0.447, -3.206e-6
-0.448, -3.241e-6
-0.449, -3.270e-6
-0.450, -3.292e-6
-0.451, -3.314e-6
-0.452, -3.339e-6
-0.453, -3.368e-6
-0.454, -3.400e-6
-0.455, -3.433e-6
-0.456, -3.465e-6
-0.457, -3.497e-6
-0.458, -3.528e-6
-0.459, -3.559e-6
-0.460, -3.591e-6
-0.461, -3.624e-6
-0.462, -3.658e-6
-0.463, -3.693e-6
-0.464, -3.726e-6
-0.465, -3.758e-6
-0.466, -3.785e-6
-0.467, -3.812e-6
-0.468, -3.840e-6
-0.469, -3.871e-6
-0.470, -3.905e-6
-0.471, -3.940e-6
-0.472, -3.973e-6
-0.473, -4.004e-6
-0.474, -4.034e-6
-0.475, -4.063e-6
-0.476, -4.094e-6
-0.477, -4.125e-6
-0.478, -4.158e-6
-0.479, -4.191e-6
-0.480, -4.222e-6
-0.481, -4.251e-6
-0.482, -4.279e-6
-0.483, -4.307e-6
-0.484, -4.337e-6
-0.485, -4.369e-6
-0.486, -4.401e-6
-0.487, -4.434e-6
-0.488, -4.465e-6
-0.489, -4.495e-6
-0.490, -4.525e-6
-0.491, -4.554e-6
-0.492, -4.584e-6
-0.493, -4.615e-6
-0.494, -4.648e-6
-0.495, -4.681e-6
-0.496, -4.714e-6
-0.497, -4.744e-6
-0.498, -4.772e-6
-0.499, -4.800e-6
-0.500, -4.828e-6
-0.501, -4.857e-6
-0.502, -4.888e-6
-0.503, -4.919e-6
-0.504, -4.949e-6
-0.505, -4.978e-6
-0.506, -5.005e-6
-0.507, -5.033e-6
-0.508, -5.061e-6
-0.509, -5.092e-6
-0.510, -5.125e-6
-0.511, -5.158e-6
-0.512, -5.189e-6
-0.513, -5.217e-6
-0.514, -5.241e-6
-0.515, -5.264e-6
-0.516, -5.289e-6
-0.517, -5.316e-6
-0.518, -5.345e-6
-0.519, -5.375e-6
-0.520, -5.405e-6
-0.521, -5.434e-6
-0.522, -5.462e-6
-0.523, -5.489e-6
-0.524, -5.516e-6
-0.525, -5.544e-6
-0.526, -5.572e-6
-0.527, -5.602e-6
-0.528, -5.631e-6
-0.529, -5.661e-6
-0.530, -5.690e-6
-0.531, -5.716e-6
-0.532, -5.739e-6
-0.533, -5.761e-6
-0.534, -5.785e-6
-0.535, -5.811e-6
-0.536, -5.838e-6
-0.537, -5.865e-6
-0.538, -5.893e-6
-0.539, -5.921e-6
-0.540, -5.948e-6
-0.541, -5.973e-6
-0.542, -5.997e-6
-0.543, -6.020e-6
-0.544, -6.044e-6
-0.545, -6.069e-6
-0.546, -6.095e-6
-0.547, -6.122e-6
-0.548, -6.150e-6
-0.549, -6.177e-6
-0.550, -6.201e-6
-0.551, -6.221e-6
-0.552, -6.239e-6
-0.553, -6.258e-6
-0.554, -6.279e-6
-0.555, -6.303e-6
-0.556, -6.327e-6
-0.557, -6.351e-6
-0.558, -6.375e-6
-0.559, -6.399e-6
-0.560, -6.423e-6
-0.561, -6.446e-6
-0.562, -6.467e-6
-0.563, -6.487e-6
-0.564, -6.507e-6
-0.565, -6.528e-6
-0.566, -6.548e-6
-0.567, -6.568e-6
-0.568, -6.587e-6
-0.569, -6.605e-6
-0.570, -6.626e-6
-0.571, -6.648e-6
-0.572, -6.670e-6
-0.573, -6.689e-6
-0.574, -6.705e-6
-0.575, -6.720e-6
-0.576, -6.735e-6
-0.577, -6.753e-6
-0.578, -6.772e-6
-0.579, -6.791e-6
-0.580, -6.809e-6
-0.581, -6.826e-6
-0.582, -6.841e-6
-0.583, -6.857e-6
-0.584, -6.875e-6
-0.585, -6.894e-6
-0.586, -6.913e-6
-0.587, -6.931e-6
-0.588, -6.946e-6
-0.589, -6.960e-6
-0.590, -6.973e-6
-0.591, -6.986e-6
-0.592, -7.000e-6
-0.593, -7.015e-6
-0.594, -7.031e-6
-0.595, -7.046e-6
-0.596, -7.060e-6
-0.597, -7.073e-6
-0.598, -7.086e-6
-0.599, -7.101e-6
-0.600, -7.117e-6
-0.601, -7.136e-6
-0.602, -7.153e-6
-0.603, -7.169e-6
-0.604, -7.182e-6
-0.605, -7.191e-6
-0.606, -7.198e-6
-0.607, -7.203e-6
-0.608, -7.208e-6
-0.609, -7.215e-6
-0.610, -7.224e-6
-0.611, -7.234e-6
-0.612, -7.245e-6
-0.613, -7.255e-6
-0.614, -7.265e-6
-0.615, -7.275e-6
-0.616, -7.286e-6
-0.617, -7.296e-6
-0.618, -7.306e-6
-0.619, -7.315e-6
-0.620, -7.323e-6
-0.621, -7.332e-6
-0.622, -7.339e-6
-0.623, -7.347e-6
-0.624, -7.355e-6
-0.625, -7.364e-6
-0.626, -7.372e-6
-0.627, -7.381e-6
-0.628, -7.389e-6
-0.629, -7.398e-6
-0.630, -7.407e-6
-0.631, -7.415e-6
-0.632, -7.422e-6
-0.633, -7.429e-6
-0.634, -7.434e-6
-0.635, -7.439e-6
-0.636, -7.443e-6
-0.637, -7.447e-6
-0.638, -7.452e-6
-0.639, -7.457e-6
-0.640, -7.463e-6
-0.641, -7.469e-6
-0.642, -7.474e-6
-0.643, -7.480e-6
-0.644, -7.486e-6
-0.645, -7.491e-6
-0.646, -7.496e-6
-0.647, -7.501e-6
-0.648, -7.506e-6
-0.649, -7.512e-6
-0.650, -7.517e-6
-0.651, -7.523e-6
-0.652, -7.528e-6
-0.653, -7.534e-6
-0.654, -7.539e-6
-0.655, -7.543e-6
-0.656, -7.548e-6
-0.657, -7.552e-6
-0.658, -7.555e-6
-0.659, -7.559e-6
-0.660, -7.563e-6
-0.661, -7.566e-6
-0.662, -7.569e-6
-0.663, -7.572e-6
-0.664, -7.576e-6
-0.665, -7.580e-6
-0.666, -7.584e-6
-0.667, -7.588e-6
-0.668, -7.591e-6
-0.669, -7.595e-6
-0.670, -7.598e-6
-0.671, -7.600e-6
-0.672, -7.603e-6
-0.673, -7.606e-6
-0.674, -7.609e-6
-0.675, -7.612e-6
-0.676, -7.615e-6
-0.677, -7.619e-6
-0.678, -7.622e-6
-0.679, -7.626e-6
-0.680, -7.630e-6
-0.681, -7.633e-6
-0.682, -7.636e-6
-0.683, -7.639e-6
-0.684, -7.641e-6
-0.685, -7.643e-6
-0.686, -7.646e-6
-0.687, -7.648e-6
-0.688, -7.651e-6
-0.689, -7.654e-6
-0.690, -7.656e-6
-0.691, -7.659e-6
-0.692, -7.661e-6
-0.693, -7.663e-6
-0.694, -7.665e-6
-0.695, -7.666e-6
-0.696, -7.667e-6
-0.697, -7.668e-6
-0.698, -7.669e-6
-0.699, -7.670e-6
-0.700, -7.671e-6
-0.701, -7.672e-6
-0.702, -7.674e-6
-0.703, -7.675e-6
-0.704, -7.676e-6
-0.705, -7.676e-6
-0.706, -7.677e-6
-0.707, -7.677e-6
-0.708, -7.678e-6
-0.709, -7.679e-6
-0.710, -7.679e-6
-0.711, -7.680e-6
-0.712, -7.680e-6
-0.713, -7.680e-6
-0.714, -7.680e-6
-0.715, -7.681e-6
-0.716, -7.681e-6
-0.717, -7.682e-6
-0.718, -7.682e-6
-0.719, -7.683e-6
-0.720, -7.683e-6
-0.721, -7.683e-6
-0.722, -7.683e-6
-0.723, -7.683e-6
-0.724, -7.682e-6
-0.725, -7.682e-6
-0.726, -7.682e-6
-0.727, -7.682e-6
-0.728, -7.682e-6
-0.729, -7.683e-6
-0.730, -7.683e-6
-0.731, -7.683e-6
-0.732, -7.682e-6
-0.733, -7.681e-6
-0.734, -7.681e-6
-0.735, -7.680e-6
-0.736, -7.680e-6
-0.737, -7.679e-6
-0.738, -7.679e-6
-0.739, -7.678e-6
-0.740, -7.678e-6
-0.741, -7.677e-6
-0.742, -7.677e-6
-0.743, -7.676e-6
-0.744, -7.676e-6
-0.745, -7.675e-6
-0.746, -7.674e-6
-0.747, -7.673e-6
-0.748, -7.671e-6
-0.749, -7.669e-6
-0.750, -7.668e-6
-0.751, -7.666e-6
-0.752, -7.664e-6
-0.753, -7.662e-6
-0.754, -7.660e-6
-0.755, -7.658e-6
-0.756, -7.656e-6
-0.757, -7.653e-6
-0.758, -7.651e-6
-0.759, -7.649e-6
-0.760, -7.646e-6
-0.761, -7.644e-6
-0.762, -7.640e-6
-0.763, -7.637e-6
-0.764, -7.634e-6
-0.765, -7.631e-6
-0.766, -7.628e-6
-0.767, -7.625e-6
-0.768, -7.622e-6
-0.769, -7.620e-6
-0.770, -7.617e-6
-0.771, -7.614e-6
-0.772, -7.610e-6
-0.773, -7.607e-6
-0.774, -7.603e-6
-0.775, -7.599e-6
-0.776, -7.596e-6
-0.777, -7.593e-6
-0.778, -7.589e-6
-0.779, -7.586e-6
-0.780, -7.583e-6
-0.781, -7.581e-6
-0.782, -7.578e-6
-0.783, -7.575e-6
-0.784, -7.572e-6
-0.785, -7.569e-6
-0.786, -7.566e-6
-0.787, -7.562e-6
-0.788, -7.558e-6
-0.789, -7.556e-6
-0.790, -7.552e-6
-0.791, -7.550e-6
-0.792, -7.547e-6
-0.793, -7.544e-6
-0.794, -7.541e-6
-0.795, -7.538e-6
-0.796, -7.533e-6
-0.797, -7.529e-6
-0.798, -7.524e-6
-0.799, -7.520e-6
-0.800, -7.516e-6
-0.801, -7.512e-6
-0.802, -7.508e-6
-0.803, -7.504e-6
-0.804, -7.500e-6
-0.805, -7.496e-6
-0.806, -7.492e-6
-0.807, -7.488e-6
-0.808, -7.485e-6
-0.809, -7.481e-6
-0.810, -7.477e-6
-0.811, -7.473e-6
-0.812, -7.468e-6
-0.813, -7.464e-6
-0.814, -7.460e-6
-0.815, -7.457e-6
-0.816, -7.455e-6
-0.817, -7.454e-6
-0.818, -7.452e-6
-0.819, -7.451e-6
-0.820, -7.449e-6
-0.821, -7.446e-6
-0.822, -7.443e-6
-0.823, -7.440e-6
-0.824, -7.436e-6
-0.825, -7.433e-6
-0.826, -7.429e-6
-0.827, -7.426e-6
-0.828, -7.423e-6
-0.829, -7.419e-6
-0.830, -7.415e-6
-0.831, -7.412e-6
-0.832, -7.408e-6
-0.833, -7.403e-6
-0.834, -7.398e-6
-0.835, -7.394e-6
-0.836, -7.390e-6
-0.837, -7.385e-6
-0.838, -7.381e-6
-0.839, -7.377e-6
-0.840, -7.373e-6
-0.841, -7.369e-6
-0.842, -7.365e-6
-0.843, -7.362e-6
-0.844, -7.360e-6
-0.845, -7.357e-6
-0.846, -7.353e-6
-0.847, -7.350e-6
-0.848, -7.345e-6
-0.849, -7.341e-6
-0.850, -7.337e-6
-0.851, -7.333e-6
-0.852, -7.329e-6
-0.853, -7.326e-6
-0.854, -7.323e-6
-0.855, -7.321e-6
-0.856, -7.318e-6
-0.857, -7.315e-6
-0.858, -7.312e-6
-0.859, -7.309e-6
-0.860, -7.305e-6
-0.861, -7.301e-6
-0.862, -7.298e-6
-0.863, -7.294e-6
-0.864, -7.290e-6
-0.865, -7.286e-6
-0.866, -7.281e-6
-0.867, -7.278e-6
-0.868, -7.275e-6
-0.869, -7.272e-6
-0.870, -7.270e-6
-0.871, -7.267e-6
-0.872, -7.263e-6
-0.873, -7.259e-6
-0.874, -7.255e-6
-0.875, -7.252e-6
-0.876, -7.249e-6
-0.877, -7.245e-6
-0.878, -7.242e-6
-0.879, -7.239e-6
-0.880, -7.235e-6
-0.881, -7.233e-6
-0.882, -7.230e-6
-0.883, -7.228e-6
-0.884, -7.225e-6
-0.885, -7.223e-6
-0.886, -7.220e-6
-0.887, -7.217e-6
-0.888, -7.215e-6
-0.889, -7.212e-6
-0.890, -7.210e-6
-0.891, -7.208e-6
-0.892, -7.207e-6
-0.893, -7.206e-6
-0.894, -7.205e-6
-0.895, -7.205e-6
-0.896, -7.204e-6
-0.897, -7.203e-6
-0.898, -7.201e-6
-0.899, -7.200e-6
-0.900, -7.199e-6
-0.901, -7.197e-6
-0.902, -7.196e-6
-0.903, -7.195e-6
-0.904, -7.194e-6
-0.905, -7.193e-6
-0.906, -7.192e-6
-0.907, -7.191e-6
-0.908, -7.190e-6
-0.909, -7.188e-6
-0.910, -7.186e-6
-0.911, -7.185e-6
-0.912, -7.182e-6
-0.913, -7.180e-6
-0.914, -7.177e-6
-0.915, -7.175e-6
-0.916, -7.172e-6
-0.917, -7.170e-6
-0.918, -7.168e-6
-0.919, -7.166e-6
-0.920, -7.165e-6
-0.921, -7.163e-6
-0.922, -7.160e-6
-0.923, -7.159e-6
-0.924, -7.156e-6
-0.925, -7.154e-6
-0.926, -7.152e-6
-0.927, -7.148e-6
-0.928, -7.145e-6
-0.929, -7.143e-6
-0.930, -7.141e-6
-0.931, -7.139e-6
-0.932, -7.138e-6
-0.933, -7.136e-6
-0.934, -7.134e-6
-0.935, -7.133e-6
-0.936, -7.131e-6
-0.937, -7.130e-6
-0.938, -7.128e-6
-0.939, -7.126e-6
-0.940, -7.123e-6
-0.941, -7.120e-6
-0.942, -7.118e-6
-0.943, -7.117e-6
-0.944, -7.116e-6
-0.945, -7.116e-6
-0.946, -7.115e-6
-0.947, -7.115e-6
-0.948, -7.114e-6
-0.949, -7.114e-6
-0.950, -7.112e-6
-0.951, -7.111e-6
-0.952, -7.109e-6
-0.953, -7.107e-6
-0.954, -7.106e-6
-0.955, -7.105e-6
-0.956, -7.105e-6
-0.957, -7.105e-6
-0.958, -7.104e-6
-0.959, -7.104e-6
-0.960, -7.104e-6
-0.961, -7.103e-6
-0.962, -7.103e-6
-0.963, -7.102e-6
-0.964, -7.101e-6
-0.965, -7.101e-6
-0.966, -7.100e-6
-0.967, -7.100e-6
-0.968, -7.099e-6
-0.969, -7.100e-6
-0.970, -7.100e-6
-0.971, -7.100e-6
-0.972, -7.101e-6
-0.973, -7.102e-6
-0.974, -7.102e-6
-0.975, -7.102e-6
-0.976, -7.102e-6
-0.977, -7.101e-6
-0.978, -7.100e-6
-0.979, -7.100e-6
-0.980, -7.100e-6
-0.981, -7.101e-6
-0.982, -7.102e-6
-0.983, -7.103e-6
-0.984, -7.104e-6
-0.985, -7.104e-6
-0.986, -7.104e-6
-0.987, -7.104e-6
-0.988, -7.104e-6
-0.989, -7.105e-6
-0.990, -7.106e-6
-0.991, -7.107e-6
-0.992, -7.107e-6
-0.993, -7.108e-6
-0.994, -7.110e-6
-0.995, -7.111e-6
-0.996, -7.112e-6
-0.997, -7.114e-6
-0.998, -7.115e-6
-0.999, -7.120e-6
-1.000, -6.944e-6
-0.999, -6.731e-6
-0.998, -6.552e-6
-0.997, -6.406e-6
-0.996, -6.305e-6
-0.995, -6.227e-6
-0.994, -6.161e-6
-0.993, -6.093e-6
-0.992, -6.030e-6
-0.991, -5.970e-6
-0.990, -5.912e-6
-0.989, -5.858e-6
-0.988, -5.808e-6
-0.987, -5.761e-6
-0.986, -5.718e-6
-0.985, -5.674e-6
-0.984, -5.628e-6
-0.983, -5.584e-6
-0.982, -5.542e-6
-0.981, -5.503e-6
-0.980, -5.466e-6
-0.979, -5.430e-6
-0.978, -5.392e-6
-0.977, -5.356e-6
-0.976, -5.320e-6
-0.975, -5.289e-6
-0.974, -5.261e-6
-0.973, -5.235e-6
-0.972, -5.207e-6
-0.971, -5.177e-6
-0.970, -5.145e-6
-0.969, -5.114e-6
-0.968, -5.083e-6
-0.967, -5.055e-6
-0.966, -5.029e-6
-0.965, -5.005e-6
-0.964, -4.982e-6
-0.963, -4.958e-6
-0.962, -4.932e-6
-0.961, -4.906e-6
-0.960, -4.881e-6
-0.959, -4.857e-6
-0.958, -4.833e-6
-0.957, -4.810e-6
-0.956, -4.790e-6
-0.955, -4.772e-6
-0.954, -4.755e-6
-0.953, -4.737e-6
-0.952, -4.714e-6
-0.951, -4.690e-6
-0.950, -4.665e-6
-0.949, -4.642e-6
-0.948, -4.622e-6
-0.947, -4.602e-6
-0.946, -4.581e-6
-0.945, -4.561e-6
-0.944, -4.542e-6
-0.943, -4.526e-6
-0.942, -4.511e-6
-0.941, -4.496e-6
-0.940, -4.478e-6
-0.939, -4.459e-6
-0.938, -4.439e-6
-0.937, -4.420e-6
-0.936, -4.403e-6
-0.935, -4.387e-6
-0.934, -4.371e-6
-0.933, -4.354e-6
-0.932, -4.336e-6
-0.931, -4.318e-6
-0.930, -4.300e-6
-0.929, -4.286e-6
-0.928, -4.275e-6
-0.927, -4.265e-6
-0.926, -4.255e-6
-0.925, -4.242e-6
-0.924, -4.226e-6
-0.923, -4.208e-6
-0.922, -4.189e-6
-0.921, -4.172e-6
-0.920, -4.157e-6
-0.919, -4.145e-6
-0.918, -4.133e-6
-0.917, -4.121e-6
-0.916, -4.107e-6
-0.915, -4.091e-6
-0.914, -4.076e-6
-0.913, -4.061e-6
-0.912, -4.047e-6
-0.911, -4.036e-6
-0.910, -4.026e-6
-0.909, -4.016e-6
-0.908, -4.005e-6
-0.907, -3.992e-6
-0.906, -3.977e-6
-0.905, -3.962e-6
-0.904, -3.947e-6
-0.903, -3.933e-6
-0.902, -3.920e-6
-0.901, -3.907e-6
-0.900, -3.895e-6
-0.899, -3.883e-6
-0.898, -3.870e-6
-0.897, -3.856e-6
-0.896, -3.843e-6
-0.895, -3.830e-6
-0.894, -3.818e-6
-0.893, -3.807e-6
-0.892, -3.797e-6
-0.891, -3.789e-6
-0.890, -3.782e-6
-0.889, -3.775e-6
-0.888, -3.768e-6
-0.887, -3.758e-6
-0.886, -3.746e-6
-0.885, -3.732e-6
-0.884, -3.716e-6
-0.883, -3.700e-6
-0.882, -3.686e-6
-0.881, -3.673e-6
-0.880, -3.663e-6
-0.879, -3.654e-6
-0.878, -3.645e-6
-0.877, -3.636e-6
-0.876, -3.625e-6
-0.875, -3.613e-6
-0.874, -3.600e-6
-0.873, -3.588e-6
-0.872, -3.575e-6
-0.871, -3.563e-6
-0.870, -3.552e-6
-0.869, -3.542e-6
-0.868, -3.534e-6
-0.867, -3.527e-6
-0.866, -3.519e-6
-0.865, -3.509e-6
-0.864, -3.499e-6
-0.863, -3.487e-6
-0.862, -3.474e-6
-0.861, -3.462e-6
-0.860, -3.451e-6
-0.859, -3.440e-6
-0.858, -3.430e-6
-0.857, -3.420e-6
-0.856, -3.411e-6
-0.855, -3.403e-6
-0.854, -3.394e-6
-0.853, -3.385e-6
-0.852, -3.375e-6
-0.851, -3.364e-6
-0.850, -3.353e-6
-0.849, -3.342e-6
-0.848, -3.331e-6
-0.847, -3.321e-6
-0.846, -3.311e-6
-0.845, -3.303e-6
-0.844, -3.296e-6
-0.843, -3.292e-6
-0.842, -3.289e-6
-0.841, -3.286e-6
-0.840, -3.284e-6
-0.839, -3.280e-6
-0.838, -3.274e-6
-0.837, -3.266e-6
-0.836, -3.255e-6
-0.835, -3.243e-6
-0.834, -3.228e-6
-0.833, -3.214e-6
-0.832, -3.199e-6
-0.831, -3.186e-6
-0.830, -3.175e-6
-0.829, -3.165e-6
-0.828, -3.156e-6
-0.827, -3.146e-6
-0.826, -3.137e-6
-0.825, -3.126e-6
-0.824, -3.116e-6
-0.823, -3.105e-6
-0.822, -3.094e-6
-0.821, -3.083e-6
-0.820, -3.072e-6
-0.819, -3.062e-6
-0.818, -3.054e-6
-0.817, -3.048e-6
-0.816, -3.042e-6
-0.815, -3.035e-6
-0.814, -3.028e-6
-0.813, -3.019e-6
-0.812, -3.009e-6
-0.811, -2.999e-6
-0.810, -2.988e-6
-0.809, -2.977e-6
-0.808, -2.966e-6
-0.807, -2.956e-6
-0.806, -2.945e-6
-0.805, -2.936e-6
-0.804, -2.929e-6
-0.803, -2.922e-6
-0.802, -2.915e-6
-0.801, -2.908e-6
-0.800, -2.900e-6
-0.799, -2.891e-6
-0.798, -2.881e-6
-0.797, -2.870e-6
-0.796, -2.860e-6
-0.795, -2.849e-6
-0.794, -2.839e-6
-0.793, -2.829e-6
-0.792, -2.821e-6
-0.791, -2.813e-6
-0.790, -2.807e-6
-0.789, -2.802e-6
-0.788, -2.797e-6
-0.787, -2.792e-6
-0.786, -2.786e-6
-0.785, -2.779e-6
-0.784, -2.770e-6
-0.783, -2.759e-6
-0.782, -2.747e-6
-0.781, -2.735e-6
-0.780, -2.724e-6
-0.779, -2.713e-6
-0.778, -2.703e-6
-0.777, -2.695e-6
-0.776, -2.687e-6
-0.775, -2.680e-6
-0.774, -2.673e-6
-0.773, -2.666e-6
-0.772, -2.658e-6
-0.771, -2.649e-6
-0.770, -2.639e-6
-0.769, -2.629e-6
-0.768, -2.619e-6
-0.767, -2.609e-6
-0.766, -2.601e-6
-0.765, -2.592e-6
-0.764, -2.584e-6
-0.763, -2.577e-6
-0.762, -2.570e-6
-0.761, -2.564e-6
-0.760, -2.558e-6
-0.759, -2.552e-6
-0.758, -2.545e-6
-0.757, -2.538e-6
-0.756, -2.530e-6
-0.755, -2.521e-6
-0.754, -2.511e-6
-0.753, -2.501e-6
-0.752, -2.491e-6
-0.751, -2.481e-6
-0.750, -2.472e-6
-0.749, -2.463e-6
-0.748, -2.454e-6
-0.747, -2.445e-6
-0.746, -2.437e-6
-0.745, -2.430e-6
-0.744, -2.423e-6
-0.743, -2.415e-6
-0.742, -2.407e-6
-0.741, -2.398e-6
-0.740, -2.390e-6
-0.739, -2.382e-6
-0.738, -2.373e-6
-0.737, -2.366e-6
-0.736, -2.357e-6
-0.735, -2.349e-6
-0.734, -2.341e-6
-0.733, -2.333e-6
-0.732, -2.326e-6
-0.731, -2.320e-6
-0.730, -2.315e-6
-0.729, -2.311e-6
-0.728, -2.308e-6
-0.727, -2.304e-6
-0.726, -2.300e-6
-0.725, -2.294e-6
-0.724, -2.287e-6
-0.723, -2.278e-6
-0.722, -2.268e-6
-0.721, -2.257e-6
-0.720, -2.245e-6
-0.719, -2.233e-6
-0.718, -2.222e-6
-0.717, -2.212e-6
-0.716, -2.203e-6
-0.715, -2.196e-6
-0.714, -2.190e-6
-0.713, -2.185e-6
-0.712, -2.179e-6
-0.711, -2.172e-6
-0.710, -2.165e-6
-0.709, -2.158e-6
-0.708, -2.149e-6
-0.707, -2.140e-6
-0.706, -2.132e-6
-0.705, -2.123e-6
-0.704, -2.116e-6
-0.703, -2.108e-6
-0.702, -2.100e-6
-0.701, -2.092e-6
-0.700, -2.085e-6
-0.699, -2.079e-6
-0.698, -2.073e-6
-0.697, -2.068e-6
-0.696, -2.062e-6
-0.695, -2.056e-6
-0.694, -2.049e-6
-0.693, -2.042e-6
-0.692, -2.033e-6
-0.691, -2.024e-6
-0.690, -2.014e-6
-0.689, -2.006e-6
-0.688, -1.997e-6
-0.687, -1.989e-6
-0.686, -1.981e-6
-0.685, -1.974e-6
-0.684, -1.967e-6
-0.683, -1.960e-6
-0.682, -1.954e-6
-0.681, -1.948e-6
-0.680, -1.941e-6
-0.679, -1.936e-6
-0.678, -1.929e-6
-0.677, -1.923e-6
-0.676, -1.916e-6
-0.675, -1.909e-6
-0.674, -1.901e-6
-0.673, -1.894e-6
-0.672, -1.886e-6
-0.671, -1.880e-6
-0.670, -1.873e-6
-0.669, -1.866e-6
-0.668, -1.859e-6
-0.667, -1.852e-6
-0.666, -1.846e-6
-0.665, -1.840e-6
-0.664, -1.835e-6
-0.663, -1.830e-6
-0.662, -1.827e-6
-0.661, -1.823e-6
-0.660, -1.820e-6
-0.659, -1.817e-6
-0.658, -1.813e-6
-0.657, -1.808e-6
-0.656, -1.801e-6
-0.655, -1.794e-6
-0.654, -1.785e-6
-0.653, -1.776e-6
-0.652, -1.766e-6
-0.651, -1.756e-6
-0.650, -1.747e-6
-0.649, -1.738e-6
-0.648, -1.729e-6
-0.647, -1.721e-6
-0.646, -1.714e-6
-0.645, -1.708e-6
-0.644, -1.702e-6
-0.643, -1.697e-6
-0.642, -1.691e-6
-0.641, -1.684e-6
-0.640, -1.676e-6
-0.639, -1.668e-6
-0.638, -1.660e-6
-0.637, -1.652e-6
-0.636, -1.644e-6
-0.635, -1.636e-6
-0.634, -1.628e-6
-0.633, -1.621e-6
-0.632, -1.613e-6
-0.631, -1.606e-6
-0.630, -1.599e-6
-0.629, -1.593e-6
-0.628, -1.587e-6
-0.627, -1.582e-6
-0.626, -1.578e-6
-0.625, -1.573e-6
-0.624, -1.569e-6
-0.623, -1.564e-6
-0.622, -1.558e-6
-0.621, -1.551e-6
-0.620, -1.544e-6
-0.619, -1.535e-6
-0.618, -1.527e-6
-0.617, -1.519e-6
-0.616, -1.511e-6
-0.615, -1.504e-6
-0.614, -1.496e-6
-0.613, -1.488e-6
-0.612, -1.480e-6
-0.611, -1.472e-6
-0.610, -1.465e-6
-0.609, -1.459e-6
-0.608, -1.454e-6
-0.607, -1.448e-6
-0.606, -1.442e-6
-0.605, -1.436e-6
-0.604, -1.430e-6
-0.603, -1.422e-6
-0.602, -1.414e-6
-0.601, -1.406e-6
-0.600, -1.398e-6
-0.599, -1.391e-6
-0.598, -1.384e-6
-0.597, -1.377e-6
-0.596, -1.370e-6
-0.595, -1.364e-6
-0.594, -1.357e-6
-0.593, -1.351e-6
-0.592, -1.345e-6
-0.591, -1.340e-6
-0.590, -1.336e-6
-0.589, -1.332e-6
-0.588, -1.329e-6
-0.587, -1.325e-6
-0.586, -1.321e-6
-0.585, -1.317e-6
-0.584, -1.310e-6
-0.583, -1.303e-6
-0.582, -1.295e-6
-0.581, -1.286e-6
-0.580, -1.276e-6
-0.579, -1.267e-6
-0.578, -1.257e-6
-0.577, -1.248e-6
-0.576, -1.239e-6
-0.575, -1.231e-6
-0.574, -1.224e-6
-0.573, -1.218e-6
-0.572, -1.212e-6
-0.571, -1.206e-6
-0.570, -1.201e-6
-0.569, -1.195e-6
-0.568, -1.189e-6
-0.567, -1.183e-6
-0.566, -1.175e-6
-0.565, -1.168e-6
-0.564, -1.160e-6
-0.563, -1.152e-6
-0.562, -1.145e-6
-0.561, -1.138e-6
-0.560, -1.131e-6
-0.559, -1.125e-6
-0.558, -1.119e-6
-0.557, -1.113e-6
-0.556, -1.107e-6
-0.555, -1.102e-6
-0.554, -1.096e-6
-0.553, -1.092e-6
-0.552, -1.088e-6
-0.551, -1.084e-6
-0.550, -1.079e-6
-0.549, -1.075e-6
-0.548, -1.070e-6
-0.547, -1.065e-6
-0.546, -1.059e-6
-0.545, -1.053e-6
-0.544, -1.046e-6
-0.543, -1.040e-6
-0.542, -1.033e-6
-0.541, -1.026e-6
-0.540, -1.020e-6
-0.539, -1.014e-6
-0.538, -1.007e-6
-0.537, -1.001e-6
-0.536, -9.952e-7
-0.535, -9.900e-7
-0.534, -9.851e-7
-0.533, -9.803e-7
-0.532, -9.756e-7
-0.531, -9.715e-7
-0.530, -9.675e-7
-0.529, -9.637e-7
-0.528, -9.596e-7
-0.527, -9.552e-7
-0.526, -9.505e-7
-0.525, -9.458e-7
-0.524, -9.410e-7
-0.523, -9.363e-7
-0.522, -9.313e-7
-0.521, -9.263e-7
-0.520, -9.211e-7
-0.519, -9.161e-7
-0.518, -9.111e-7
-0.517, -9.061e-7
-0.516, -9.011e-7
-0.515, -8.964e-7
-0.514, -8.917e-7
-0.513, -8.874e-7
-0.512, -8.832e-7
-0.511, -8.791e-7
-0.510, -8.750e-7
-0.509, -8.711e-7
-0.508, -8.674e-7
-0.507, -8.640e-7
-0.506, -8.608e-7
-0.505, -8.580e-7
-0.504, -8.550e-7
-0.503, -8.520e-7
-0.502, -8.490e-7
-0.501, -8.462e-7
-0.500, -8.436e-7
-0.499, -8.412e-7
-0.498, -8.386e-7
-0.497, -8.359e-7
-0.496, -8.330e-7
-0.495, -8.300e-7
-0.494, -8.269e-7
-0.493, -8.240e-7
-0.492, -8.209e-7
-0.491, -8.178e-7
-0.490, -8.142e-7
-0.489, -8.104e-7
-0.488, -8.060e-7
-0.487, -8.016e-7
-0.486, -7.970e-7
-0.485, -7.931e-7
-0.484, -7.894e-7
-0.483, -7.863e-7
-0.482, -7.829e-7
-0.481, -7.795e-7
-0.480, -7.759e-7
-0.479, -7.724e-7
-0.478, -7.686e-7
-0.477, -7.649e-7
-0.476, -7.610e-7
-0.475, -7.573e-7
-0.474, -7.537e-7
-0.473, -7.505e-7
-0.472, -7.473e-7
-0.471, -7.443e-7
-0.470, -7.415e-7
-0.469, -7.387e-7
-0.468, -7.360e-7
-0.467, -7.334e-7
-0.466, -7.306e-7
-0.465, -7.278e-7
-0.464, -7.250e-7
-0.463, -7.221e-7
-0.462, -7.192e-7
-0.461, -7.165e-7
-0.460, -7.137e-7
-0.459, -7.107e-7
-0.458, -7.075e-7
-0.457, -7.044e-7
-0.456, -7.012e-7
-0.455, -6.978e-7
-0.454, -6.942e-7
-0.453, -6.900e-7
-0.452, -6.854e-7
-0.451, -6.808e-7
-0.450, -6.755e-7
-0.449, -6.702e-7
-0.448, -6.649e-7
-0.447, -6.596e-7
-0.446, -6.542e-7
-0.445, -6.492e-7
-0.444, -6.438e-7
-0.443, -6.384e-7
-0.442, -6.330e-7
-0.441, -6.275e-7
-0.440, -6.219e-7
-0.439, -6.167e-7
-0.438, -6.113e-7
-0.437, -6.061e-7
-0.436, -6.011e-7
-0.435, -5.965e-7
-0.434, -5.918e-7
-0.433, -5.870e-7
-0.432, -5.818e-7
-0.431, -5.759e-7
-0.430, -5.689e-7
-0.429, -5.614e-7
-0.428, -5.530e-7
-0.427, -5.442e-7
-0.426, -5.353e-7
-0.425, -5.266e-7
-0.424, -5.177e-7
-0.423, -5.091e-7
-0.422, -5.008e-7
-0.421, -4.929e-7
-0.420, -4.854e-7
-0.419, -4.785e-7
-0.418, -4.711e-7
-0.417, -4.632e-7
-0.416, -4.543e-7
-0.415, -4.444e-7
-0.414, -4.337e-7
-0.413, -4.227e-7
-0.412, -4.112e-7
-0.411, -3.999e-7
-0.410, -3.890e-7
-0.409, -3.791e-7
-0.408, -3.708e-7
-0.407, -3.639e-7
-0.406, -3.583e-7
-0.405, -3.534e-7
-0.404, -3.479e-7
-0.403, -3.410e-7
-0.402, -3.318e-7
-0.401, -3.200e-7
-0.400, -3.066e-7
-0.399, -2.923e-7
-0.398, -2.779e-7
-0.397, -2.645e-7
-0.396, -2.524e-7
-0.395, -2.418e-7
-0.394, -2.324e-7
-0.393, -2.234e-7
-0.392, -2.138e-7
-0.391, -2.033e-7
-0.390, -1.917e-7
-0.389, -1.794e-7
-0.388, -1.669e-7
-0.387, -1.547e-7
-0.386, -1.427e-7
-0.385, -1.319e-7
-0.384, -1.222e-7
-0.383, -1.139e-7
-0.382, -1.060e-7
-0.381, -9.749e-8
-0.380, -8.728e-8
-0.379, -7.523e-8
-0.378, -6.161e-8
-0.377, -4.741e-8
-0.376, -3.326e-8
-0.375, -2.006e-8
-0.374, -8.247e-9
-0.373, 2.237e-9
-0.372, 1.167e-8
-0.371, 2.060e-8
-0.370, 3.001e-8
-0.369, 4.028e-8
-0.368, 5.150e-8
-0.367, 6.307e-8
-0.366, 7.448e-8
-0.365, 8.519e-8
-0.364, 9.541e-8
-0.363, 1.051e-7
-0.362, 1.143e-7
-0.361, 1.223e-7
-0.360, 1.292e-7
-0.359, 1.350e-7
-0.358, 1.406e-7
-0.357, 1.472e-7
-0.356, 1.552e-7
-0.355, 1.646e-7
-0.354, 1.752e-7
-0.353, 1.863e-7
-0.352, 1.977e-7
-0.351, 2.093e-7
-0.350, 2.206e-7
-0.349, 2.309e-7
-0.348, 2.404e-7
-0.347, 2.484e-7
-0.346, 2.553e-7
-0.345, 2.614e-7
-0.344, 2.674e-7
-0.343, 2.736e-7
-0.342, 2.805e-7
-0.341, 2.879e-7
-0.340, 2.959e-7
-0.339, 3.038e-7
-0.338, 3.119e-7
-0.337, 3.197e-7
-0.336, 3.273e-7
-0.335, 3.350e-7
-0.334, 3.427e-7
-0.333, 3.502e-7
-0.332, 3.570e-7
-0.331, 3.630e-7
-0.330, 3.679e-7
-0.329, 3.722e-7
-0.328, 3.764e-7
-0.327, 3.806e-7
-0.326, 3.846e-7
-0.325, 3.888e-7
-0.324, 3.930e-7
-0.323, 3.973e-7
-0.322, 4.024e-7
-0.321, 4.078e-7
-0.320, 4.132e-7
-0.319, 4.185e-7
-0.318, 4.236e-7
-0.317, 4.284e-7
-0.316, 4.334e-7
-0.315, 4.384e-7
-0.314, 4.431e-7
-0.313, 4.474e-7
-0.312, 4.516e-7
-0.311, 4.556e-7
-0.310, 4.599e-7
-0.309, 4.642e-7
-0.308, 4.682e-7
-0.307, 4.716e-7
-0.306, 4.749e-7
-0.305, 4.781e-7
-0.304, 4.812e-7
-0.303, 4.841e-7
-0.302, 4.866e-7
-0.301, 4.888e-7
-0.300, 4.912e-7
-0.299, 4.937e-7
-0.298, 4.961e-7
-0.297, 4.983e-7
-0.296, 5.005e-7
-0.295, 5.026e-7
-0.294, 5.047e-7
-0.293, 5.067e-7
-0.292, 5.086e-7
-0.291, 5.101e-7
-0.290, 5.116e-7
-0.289, 5.130e-7
-0.288, 5.144e-7
-0.287, 5.160e-7
-0.286, 5.178e-7
-0.285, 5.195e-7
-0.284, 5.216e-7
-0.283, 5.237e-7
-0.282, 5.260e-7
-0.281, 5.280e-7
-0.280, 5.296e-7
-0.279, 5.309e-7
-0.278, 5.321e-7
-0.277, 5.333e-7
-0.276, 5.346e-7
-0.275, 5.359e-7
-0.274, 5.373e-7
-0.273, 5.386e-7
-0.272, 5.400e-7
-0.271, 5.416e-7
-0.270, 5.433e-7
-0.269, 5.449e-7
-0.268, 5.463e-7
-0.267, 5.475e-7
-0.266, 5.484e-7
-0.265, 5.492e-7
-0.264, 5.501e-7
-0.263, 5.508e-7
-0.262, 5.515e-7
-0.261, 5.523e-7
-0.260, 5.532e-7
-0.259, 5.541e-7
-0.258, 5.553e-7
-0.257, 5.566e-7
-0.256, 5.579e-7
-0.255, 5.590e-7
-0.254, 5.596e-7
-0.253, 5.599e-7
-0.252, 5.600e-7
-0.251, 5.602e-7
-0.250, 5.607e-7
-0.249, 5.614e-7
-0.248, 5.624e-7
-0.247, 5.632e-7
-0.246, 5.639e-7
-0.245, 5.644e-7
-0.244, 5.650e-7
-0.243, 5.656e-7
-0.242, 5.663e-7
-0.241, 5.669e-7
-0.240, 5.671e-7
-0.239, 5.670e-7
-0.238, 5.669e-7
-0.237, 5.671e-7
-0.236, 5.677e-7
-0.235, 5.684e-7
-0.234, 5.691e-7
-0.233, 5.697e-7
-0.232, 5.704e-7
-0.231, 5.711e-7
-0.230, 5.717e-7
-0.229, 5.721e-7
-0.228, 5.722e-7
-0.227, 5.720e-7
-0.226, 5.721e-7
-0.225, 5.722e-7
-0.224, 5.724e-7
-0.223, 5.725e-7
-0.222, 5.728e-7
-0.221, 5.730e-7
-0.220, 5.734e-7
-0.219, 5.739e-7
-0.218, 5.744e-7
-0.217, 5.747e-7
-0.216, 5.750e-7
-0.215, 5.752e-7
-0.214, 5.752e-7
-0.213, 5.753e-7
-0.212, 5.754e-7
-0.211, 5.753e-7
-0.210, 5.756e-7
-0.209, 5.758e-7
-0.208, 5.759e-7
-0.207, 5.757e-7
-0.206, 5.753e-7
-0.205, 5.750e-7
-0.204, 5.751e-7
-0.203, 5.757e-7
-0.202, 5.764e-7
-0.201, 5.767e-7
-0.200, 5.768e-7
-0.199, 5.766e-7
-0.198, 5.766e-7
-0.197, 5.768e-7
-0.196, 5.771e-7
-0.195, 5.773e-7
-0.194, 5.775e-7
-0.193, 5.776e-7
-0.192, 5.776e-7
-0.191, 5.777e-7
-0.190, 5.780e-7
-0.189, 5.781e-7
-0.188, 5.783e-7
-0.187, 5.782e-7
-0.186, 5.781e-7
-0.185, 5.780e-7
-0.184, 5.780e-7
-0.183, 5.782e-7
-0.182, 5.786e-7
-0.181, 5.794e-7
-0.180, 5.801e-7
-0.179, 5.805e-7
-0.178, 5.805e-7
-0.177, 5.801e-7
-0.176, 5.797e-7
-0.175, 5.794e-7
-0.174, 5.793e-7
-0.173, 5.792e-7
-0.172, 5.795e-7
-0.171, 5.797e-7
-0.170, 5.800e-7
-0.169, 5.801e-7
-0.168, 5.802e-7
-0.167, 5.802e-7
-0.166, 5.804e-7
-0.165, 5.805e-7
-0.164, 5.806e-7
-0.163, 5.803e-7
-0.162, 5.801e-7
-0.161, 5.797e-7
-0.160, 5.797e-7
-0.159, 5.799e-7
-0.158, 5.801e-7
-0.157, 5.801e-7
-0.156, 5.803e-7
-0.155, 5.806e-7
-0.154, 5.809e-7
-0.153, 5.811e-7
-0.152, 5.810e-7
-0.151, 5.808e-7
-0.150, 5.808e-7
-0.149, 5.807e-7
-0.148, 5.807e-7
-0.147, 5.805e-7
-0.146, 5.804e-7
-0.145, 5.804e-7
-0.144, 5.805e-7
-0.143, 5.808e-7
-0.142, 5.810e-7
-0.141, 5.812e-7
-0.140, 5.813e-7
-0.139, 5.813e-7
-0.138, 5.812e-7
-0.137, 5.810e-7
-0.136, 5.807e-7
-0.135, 5.805e-7
-0.134, 5.804e-7
-0.133, 5.803e-7
-0.132, 5.804e-7
-0.131, 5.805e-7
-0.130, 5.809e-7
-0.129, 5.813e-7
-0.128, 5.816e-7
-0.127, 5.815e-7
-0.126, 5.813e-7
-0.125, 5.809e-7
-0.124, 5.806e-7
-0.123, 5.804e-7
-0.122, 5.804e-7
-0.121, 5.804e-7
-0.120, 5.807e-7
-0.119, 5.809e-7
-0.118, 5.810e-7
-0.117, 5.809e-7
-0.116, 5.808e-7
-0.115, 5.805e-7
-0.114, 5.805e-7
-0.113, 5.804e-7
-0.112, 5.803e-7
-0.111, 5.801e-7
-0.110, 5.798e-7
-0.109, 5.794e-7
-0.108, 5.793e-7
-0.107, 5.794e-7
-0.106, 5.797e-7
-0.105, 5.800e-7
-0.104, 5.804e-7
-0.103, 5.805e-7
-0.102, 5.806e-7
-0.101, 5.805e-7
-0.100, 5.805e-7
-0.099, 5.804e-7
-0.098, 5.803e-7
-0.097, 5.799e-7
-0.096, 5.795e-7
-0.095, 5.793e-7
-0.094, 5.794e-7
-0.093, 5.796e-7
-0.092, 5.799e-7
-0.091, 5.800e-7
-0.090, 5.800e-7
-0.089, 5.800e-7
-0.088, 5.800e-7
-0.087, 5.800e-7
-0.086, 5.798e-7
-0.085, 5.796e-7
-0.084, 5.791e-7
-0.083, 5.787e-7
-0.082, 5.786e-7
-0.081, 5.787e-7
-0.080, 5.789e-7
-0.079, 5.793e-7
-0.078, 5.796e-7
-0.077, 5.799e-7
-0.076, 5.799e-7
-0.075, 5.796e-7
-0.074, 5.792e-7
-0.073, 5.789e-7
-0.072, 5.787e-7
-0.071, 5.787e-7
-0.070, 5.785e-7
-0.069, 5.785e-7
-0.068, 5.785e-7
-0.067, 5.783e-7
-0.066, 5.784e-7
-0.065, 5.786e-7
-0.064, 5.786e-7
-0.063, 5.786e-7
-0.062, 5.785e-7
-0.061, 5.781e-7
-0.060, 5.779e-7
-0.059, 5.777e-7
-0.058, 5.776e-7
-0.057, 5.776e-7
-0.056, 5.777e-7
-0.055, 5.777e-7
-0.054, 5.779e-7
-0.053, 5.783e-7
-0.052, 5.787e-7
-0.051, 5.787e-7
-0.050, 5.786e-7
-0.049, 5.782e-7
-0.048, 5.777e-7
-0.047, 5.775e-7
-0.046, 5.775e-7
-0.045, 5.774e-7
-0.044, 5.774e-7
-0.043, 5.774e-7
-0.042, 5.774e-7
-0.041, 5.774e-7
-0.040, 5.776e-7
-0.039, 5.776e-7
-0.038, 5.776e-7
-0.037, 5.776e-7
-0.036, 5.776e-7
-0.035, 5.774e-7
-0.034, 5.773e-7
-0.033, 5.772e-7
-0.032, 5.770e-7
-0.031, 5.769e-7
-0.030, 5.769e-7
-0.029, 5.769e-7
-0.028, 5.772e-7
-0.027, 5.776e-7
-0.026, 5.779e-7
-0.025, 5.780e-7
-0.024, 5.779e-7
-0.023, 5.777e-7
-0.022, 5.774e-7
-0.021, 5.773e-7
-0.020, 5.772e-7
-0.019, 5.770e-7
-0.018, 5.770e-7
-0.017, 5.770e-7
-0.016, 5.770e-7
-0.015, 5.772e-7
-0.014, 5.773e-7
-0.013, 5.773e-7
-0.012, 5.774e-7
-0.011, 5.775e-7
-0.010, 5.774e-7
-0.009, 5.772e-7
-0.008, 5.771e-7
-0.007, 5.770e-7
-0.006, 5.771e-7
-0.005, 5.771e-7
-0.004, 5.770e-7
-0.003, 5.770e-7
-0.002, 5.775e-7
-0.001, 5.782e-7
-0.000, 5.789e-7
0.001, 5.790e-7
0.002, 5.786e-7
0.003, 5.781e-7
0.004, 5.777e-7
0.005, 5.776e-7
0.006, 5.776e-7
0.007, 5.774e-7
0.008, 5.773e-7
0.009, 5.775e-7
0.010, 5.778e-7
0.011, 5.783e-7
0.012, 5.786e-7
0.013, 5.787e-7
0.014, 5.786e-7
0.015, 5.783e-7
0.016, 5.781e-7
0.017, 5.779e-7
0.018, 5.778e-7
0.019, 5.778e-7
0.020, 5.779e-7
0.021, 5.778e-7
0.022, 5.779e-7
0.023, 5.781e-7
0.024, 5.784e-7
0.025, 5.789e-7
0.026, 5.793e-7
0.027, 5.795e-7
0.028, 5.795e-7
0.029, 5.793e-7
0.030, 5.792e-7
0.031, 5.792e-7
0.032, 5.791e-7
0.033, 5.792e-7
0.034, 5.794e-7
0.035, 5.796e-7
0.036, 5.799e-7
0.037, 5.803e-7
0.038, 5.806e-7
0.039, 5.808e-7
0.040, 5.809e-7
0.041, 5.810e-7
0.042, 5.809e-7
0.043, 5.809e-7
0.044, 5.811e-7
0.045, 5.812e-7
0.046, 5.815e-7
0.047, 5.819e-7
0.048, 5.821e-7
0.049, 5.823e-7
0.050, 5.825e-7
0.051, 5.827e-7
0.052, 5.829e-7
0.053, 5.830e-7
0.054, 5.831e-7
0.055, 5.831e-7
0.056, 5.830e-7
0.057, 5.830e-7
0.058, 5.829e-7
0.059, 5.829e-7
0.060, 5.832e-7
0.061, 5.836e-7
0.062, 5.841e-7
0.063, 5.846e-7
0.064, 5.849e-7
0.065, 5.849e-7
0.066, 5.848e-7
0.067, 5.848e-7
0.068, 5.850e-7
0.069, 5.854e-7
0.070, 5.856e-7
0.071, 5.858e-7
0.072, 5.861e-7
0.073, 5.865e-7
0.074, 5.870e-7
0.075, 5.877e-7
0.076, 5.881e-7
0.077, 5.884e-7
0.078, 5.885e-7
0.079, 5.886e-7
0.080, 5.885e-7
0.081, 5.886e-7
0.082, 5.887e-7
0.083, 5.887e-7
0.084, 5.889e-7
0.085, 5.893e-7
0.086, 5.897e-7
0.087, 5.902e-7
0.088, 5.907e-7
0.089, 5.911e-7
0.090, 5.913e-7
0.091, 5.915e-7
0.092, 5.915e-7
0.093, 5.915e-7
0.094, 5.917e-7
0.095, 5.920e-7
0.096, 5.923e-7
0.097, 5.927e-7
0.098, 5.930e-7
0.099, 5.934e-7
0.100, 5.939e-7
0.101, 5.944e-7
0.102, 5.948e-7
0.103, 5.950e-7
0.104, 5.952e-7
0.105, 5.953e-7
0.106, 5.955e-7
0.107, 5.957e-7
0.108, 5.959e-7
0.109, 5.960e-7
0.110, 5.965e-7
0.111, 5.971e-7
0.112, 5.975e-7
0.113, 5.981e-7
0.114, 5.985e-7
0.115, 5.989e-7
0.116, 5.993e-7
0.117, 5.995e-7
0.118, 5.996e-7
0.119, 5.997e-7
0.120, 6.000e-7
0.121, 6.002e-7
0.122, 6.004e-7
0.123, 6.008e-7
0.124, 6.011e-7
0.125, 6.015e-7
0.126, 6.022e-7
0.127, 6.030e-7
0.128, 6.036e-7
0.129, 6.041e-7
0.130, 6.043e-7
0.131, 6.044e-7
0.132, 6.046e-7
0.133, 6.049e-7
0.134, 6.052e-7
0.135, 6.056e-7
0.136, 6.060e-7
0.137, 6.065e-7
0.138, 6.069e-7
0.139, 6.075e-7
0.140, 6.080e-7
0.141, 6.085e-7
0.142, 6.091e-7
0.143, 6.095e-7
0.144, 6.097e-7
0.145, 6.099e-7
0.146, 6.101e-7
0.147, 6.105e-7
0.148, 6.110e-7
0.149, 6.115e-7
0.150, 6.119e-7
0.151, 6.122e-7
0.152, 6.128e-7
0.153, 6.133e-7
0.154, 6.139e-7
0.155, 6.143e-7
0.156, 6.145e-7
0.157, 6.147e-7
0.158, 6.150e-7
0.159, 6.153e-7
0.160, 6.156e-7
0.161, 6.159e-7
0.162, 6.163e-7
0.163, 6.168e-7
0.164, 6.173e-7
0.165, 6.178e-7
0.166, 6.181e-7
0.167, 6.184e-7
0.168, 6.187e-7
0.169, 6.190e-7
0.170, 6.194e-7
0.171, 6.197e-7
0.172, 6.200e-7
0.173, 6.203e-7
0.174, 6.206e-7
0.175, 6.210e-7
0.176, 6.214e-7
0.177, 6.219e-7
0.178, 6.223e-7
0.179, 6.227e-7
0.180, 6.230e-7
0.181, 6.232e-7
0.182, 6.234e-7
0.183, 6.236e-7
0.184, 6.238e-7
0.185, 6.240e-7
0.186, 6.241e-7
0.187, 6.244e-7
0.188, 6.248e-7
0.189, 6.252e-7
0.190, 6.257e-7
0.191, 6.261e-7
0.192, 6.263e-7
0.193, 6.267e-7
0.194, 6.270e-7
0.195, 6.274e-7
0.196, 6.278e-7
0.197, 6.281e-7
0.198, 6.284e-7
0.199, 6.288e-7
0.200, 6.293e-7
0.201, 6.299e-7
0.202, 6.302e-7
0.203, 6.304e-7
0.204, 6.304e-7
0.205, 6.306e-7
0.206, 6.313e-7
0.207, 6.322e-7
0.208, 6.330e-7
0.209, 6.336e-7
0.210, 6.338e-7
0.211, 6.341e-7
0.212, 6.347e-7
0.213, 6.355e-7
0.214, 6.364e-7
0.215, 6.372e-7
0.216, 6.379e-7
0.217, 6.385e-7
0.218, 6.391e-7
0.219, 6.397e-7
0.220, 6.404e-7
0.221, 6.412e-7
0.222, 6.422e-7
0.223, 6.431e-7
0.224, 6.437e-7
0.225, 6.444e-7
0.226, 6.451e-7
0.227, 6.462e-7
0.228, 6.476e-7
0.229, 6.491e-7
0.230, 6.503e-7
0.231, 6.512e-7
0.232, 6.519e-7
0.233, 6.527e-7
0.234, 6.534e-7
0.235, 6.543e-7
0.236, 6.551e-7
0.237, 6.561e-7
0.238, 6.571e-7
0.239, 6.582e-7
0.240, 6.592e-7
0.241, 6.604e-7
0.242, 6.615e-7
0.243, 6.627e-7
0.244, 6.639e-7
0.245, 6.651e-7
0.246, 6.663e-7
0.247, 6.674e-7
0.248, 6.683e-7
0.249, 6.692e-7
0.250, 6.699e-7
0.251, 6.709e-7
0.252, 6.720e-7
0.253, 6.735e-7
0.254, 6.751e-7
0.255, 6.769e-7
0.256, 6.782e-7
0.257, 6.793e-7
0.258, 6.801e-7
0.259, 6.810e-7
0.260, 6.818e-7
0.261, 6.830e-7
0.262, 6.840e-7
0.263, 6.853e-7
0.264, 6.867e-7
0.265, 6.880e-7
0.266, 6.892e-7
0.267, 6.907e-7
0.268, 6.922e-7
0.269, 6.938e-7
0.270, 6.952e-7
0.271, 6.963e-7
0.272, 6.972e-7
0.273, 6.984e-7
0.274, 6.996e-7
0.275, 7.008e-7
0.276, 7.019e-7
0.277, 7.030e-7
0.278, 7.042e-7
0.279, 7.059e-7
0.280, 7.079e-7
0.281, 7.098e-7
0.282, 7.113e-7
0.283, 7.124e-7
0.284, 7.132e-7
0.285, 7.141e-7
0.286, 7.151e-7
0.287, 7.164e-7
0.288, 7.176e-7
0.289, 7.189e-7
0.290, 7.201e-7
0.291, 7.214e-7
0.292, 7.226e-7
0.293, 7.239e-7
0.294, 7.250e-7
0.295, 7.262e-7
0.296, 7.274e-7
0.297, 7.286e-7
0.298, 7.296e-7
0.299, 7.307e-7
0.300, 7.315e-7
0.301, 7.323e-7
0.302, 7.332e-7
0.303, 7.344e-7
0.304, 7.355e-7
0.305, 7.369e-7
0.306, 7.382e-7
0.307, 7.394e-7
0.308, 7.403e-7
0.309, 7.413e-7
0.310, 7.420e-7
0.311, 7.429e-7
0.312, 7.439e-7
0.313, 7.448e-7
0.314, 7.457e-7
0.315, 7.469e-7
0.316, 7.480e-7
0.317, 7.491e-7
0.318, 7.503e-7
0.319, 7.514e-7
0.320, 7.524e-7
0.321, 7.534e-7
0.322, 7.543e-7
0.323, 7.551e-7
0.324, 7.560e-7
0.325, 7.570e-7
0.326, 7.580e-7
0.327, 7.590e-7
0.328, 7.601e-7
0.329, 7.614e-7
0.330, 7.628e-7
0.331, 7.645e-7
0.332, 7.662e-7
0.333, 7.677e-7
0.334, 7.690e-7
0.335, 7.702e-7
0.336, 7.713e-7
0.337, 7.726e-7
0.338, 7.738e-7
0.339, 7.749e-7
0.340, 7.761e-7
0.341, 7.778e-7
0.342, 7.796e-7
0.343, 7.816e-7
0.344, 7.835e-7
0.345, 7.851e-7
0.346, 7.866e-7
0.347, 7.883e-7
0.348, 7.899e-7
0.349, 7.915e-7
0.350, 7.930e-7
0.351, 7.946e-7
0.352, 7.962e-7
0.353, 7.982e-7
0.354, 8.000e-7
0.355, 8.019e-7
0.356, 8.036e-7
0.357, 8.055e-7
0.358, 8.075e-7
0.359, 8.095e-7
0.360, 8.112e-7
0.361, 8.127e-7
0.362, 8.139e-7
0.363, 8.153e-7
0.364, 8.167e-7
0.365, 8.183e-7
0.366, 8.200e-7
0.367, 8.219e-7
0.368, 8.235e-7
0.369, 8.253e-7
0.370, 8.270e-7
0.371, 8.286e-7
0.372, 8.302e-7
0.373, 8.320e-7
0.374, 8.337e-7
0.375, 8.354e-7
0.376, 8.369e-7
0.377, 8.384e-7
0.378, 8.397e-7
0.379, 8.413e-7
0.380, 8.428e-7
0.381, 8.445e-7
0.382, 8.463e-7
0.383, 8.483e-7
0.384, 8.501e-7
0.385, 8.516e-7
0.386, 8.529e-7
0.387, 8.541e-7
0.388, 8.553e-7
0.389, 8.566e-7
0.390, 8.580e-7
0.391, 8.593e-7
0.392, 8.607e-7
0.393, 8.622e-7
0.394, 8.634e-7
0.395, 8.648e-7
0.396, 8.659e-7
0.397, 8.670e-7
0.398, 8.683e-7
0.399, 8.698e-7
0.400, 8.711e-7
0.401, 8.725e-7
0.402, 8.736e-7
0.403, 8.747e-7
0.404, 8.759e-7
0.405, 8.772e-7
0.406, 8.788e-7
0.407, 8.807e-7
0.408, 8.831e-7
0.409, 8.857e-7
0.410, 8.882e-7
0.411, 8.900e-7
0.412, 8.914e-7
0.413, 8.925e-7
0.414, 8.938e-7
0.415, 8.956e-7
0.416, 8.975e-7
0.417, 8.997e-7
0.418, 9.020e-7
0.419, 9.045e-7
0.420, 9.070e-7
0.421, 9.095e-7
0.422, 9.118e-7
0.423, 9.141e-7
0.424, 9.164e-7
0.425, 9.189e-7
0.426, 9.211e-7
0.427, 9.234e-7
0.428, 9.256e-7
0.429, 9.278e-7
0.430, 9.304e-7
0.431, 9.332e-7
0.432, 9.358e-7
0.433, 9.386e-7
0.434, 9.413e-7
0.435, 9.441e-7
0.436, 9.467e-7
0.437, 9.493e-7
0.438, 9.517e-7
0.439, 9.541e-7
0.440, 9.564e-7
0.441, 9.588e-7
0.442, 9.609e-7
0.443, 9.634e-7
0.444, 9.659e-7
0.445, 9.685e-7
0.446, 9.712e-7
0.447, 9.739e-7
0.448, 9.763e-7
0.449, 9.786e-7
0.450, 9.807e-7
0.451, 9.826e-7
0.452, 9.845e-7
0.453, 9.867e-7
0.454, 9.887e-7
0.455, 9.909e-7
0.456, 9.928e-7
0.457, 9.948e-7
0.458, 9.966e-7
0.459, 9.987e-7
0.460, 1.001e-6
0.461, 1.003e-6
0.462, 1.006e-6
0.463, 1.008e-6
0.464, 1.010e-6
0.465, 1.012e-6
0.466, 1.014e-6
0.467, 1.016e-6
0.468, 1.019e-6
0.469, 1.022e-6
0.470, 1.024e-6
0.471, 1.027e-6
0.472, 1.030e-6
0.473, 1.033e-6
0.474, 1.036e-6
0.475, 1.039e-6
0.476, 1.042e-6
0.477, 1.045e-6
0.478, 1.048e-6
0.479, 1.050e-6
0.480, 1.053e-6
0.481, 1.056e-6
0.482, 1.058e-6
0.483, 1.061e-6
0.484, 1.064e-6
0.485, 1.067e-6
0.486, 1.070e-6
0.487, 1.073e-6
0.488, 1.076e-6
0.489, 1.079e-6
0.490, 1.081e-6
0.491, 1.084e-6
0.492, 1.086e-6
0.493, 1.089e-6
0.494, 1.091e-6
0.495, 1.094e-6
0.496, 1.096e-6
0.497, 1.099e-6
0.498, 1.101e-6
0.499, 1.103e-6
