100 mV/s
Potential/V, Current/A
0.500, 6.202e-7
0.499, 5.747e-7
0.498, 5.379e-7
0.497, 5.100e-7
0.496, 4.936e-7
0.495, 4.831e-7
0.494, 4.747e-7
0.493, 4.654e-7
0.492, 4.556e-7
0.491, 4.465e-7
0.490, 4.375e-7
0.489, 4.290e-7
0.488, 4.206e-7
0.487, 4.129e-7
0.486, 4.059e-7
0.485, 4.002e-7
0.484, 3.951e-7
0.483, 3.910e-7
0.482, 3.869e-7
0.481, 3.833e-7
0.480, 3.799e-7
0.479, 3.765e-7
0.478, 3.730e-7
0.477, 3.694e-7
0.476, 3.654e-7
0.475, 3.614e-7
0.474, 3.572e-7
0.473, 3.533e-7
0.472, 3.492e-7
0.471, 3.454e-7
0.470, 3.414e-7
0.469, 3.373e-7
0.468, 3.333e-7
0.467, 3.298e-7
0.466, 3.262e-7
0.465, 3.227e-7
0.464, 3.187e-7
0.463, 3.147e-7
0.462, 3.105e-7
0.461, 3.070e-7
0.460, 3.034e-7
0.459, 3.001e-7
0.458, 2.968e-7
0.457, 2.940e-7
0.456, 2.911e-7
0.455, 2.888e-7
0.454, 2.862e-7
0.453, 2.836e-7
0.452, 2.810e-7
0.451, 2.785e-7
0.450, 2.757e-7
0.449, 2.733e-7
0.448, 2.707e-7
0.447, 2.684e-7
0.446, 2.663e-7
0.445, 2.646e-7
0.444, 2.629e-7
0.443, 2.614e-7
0.442, 2.597e-7
0.441, 2.580e-7
0.440, 2.561e-7
0.439, 2.542e-7
0.438, 2.521e-7
0.437, 2.499e-7
0.436, 2.475e-7
0.435, 2.456e-7
0.434, 2.436e-7
0.433, 2.419e-7
0.432, 2.401e-7
0.431, 2.384e-7
0.430, 2.365e-7
0.429, 2.350e-7
0.428, 2.330e-7
0.427, 2.308e-7
0.426, 2.284e-7
0.425, 2.262e-7
0.424, 2.236e-7
0.423, 2.214e-7
0.422, 2.189e-7
0.421, 2.162e-7
0.420, 2.136e-7
0.419, 2.117e-7
0.418, 2.097e-7
0.417, 2.080e-7
0.416, 2.059e-7
0.415, 2.036e-7
0.414, 2.009e-7
0.413, 1.982e-7
0.412, 1.946e-7
0.411, 1.910e-7
0.410, 1.873e-7
0.409, 1.845e-7
0.408, 1.824e-7
0.407, 1.810e-7
0.406, 1.795e-7
0.405, 1.782e-7
0.404, 1.767e-7
0.403, 1.754e-7
0.402, 1.731e-7
0.401, 1.707e-7
0.400, 1.680e-7
0.399, 1.656e-7
0.398, 1.633e-7
0.397, 1.616e-7
0.396, 1.594e-7
0.395, 1.577e-7
0.394, 1.560e-7
0.393, 1.546e-7
0.392, 1.531e-7
0.391, 1.519e-7
0.390, 1.503e-7
0.389, 1.489e-7
0.388, 1.473e-7
0.387, 1.459e-7
0.386, 1.444e-7
0.385, 1.432e-7
0.384, 1.418e-7
0.383, 1.407e-7
0.382, 1.396e-7
0.381, 1.388e-7
0.380, 1.379e-7
0.379, 1.370e-7
0.378, 1.360e-7
0.377, 1.351e-7
0.376, 1.339e-7
0.375, 1.327e-7
0.374, 1.315e-7
0.373, 1.304e-7
0.372, 1.289e-7
0.371, 1.275e-7
0.370, 1.259e-7
0.369, 1.245e-7
0.368, 1.232e-7
0.367, 1.220e-7
0.366, 1.205e-7
0.365, 1.191e-7
0.364, 1.171e-7
0.363, 1.150e-7
0.362, 1.126e-7
0.361, 1.102e-7
0.360, 1.075e-7
0.359, 1.050e-7
0.358, 1.023e-7
0.357, 9.997e-8
0.356, 9.750e-8
0.355, 9.527e-8
0.354, 9.265e-8
0.353, 8.999e-8
0.352, 8.707e-8
0.351, 8.394e-8
0.350, 8.038e-8
0.349, 7.695e-8
0.348, 7.319e-8
0.347, 6.942e-8
0.346, 6.551e-8
0.345, 6.150e-8
0.344, 5.715e-8
0.343, 5.307e-8
0.342, 4.893e-8
0.341, 4.487e-8
0.340, 4.073e-8
0.339, 3.658e-8
0.338, 3.208e-8
0.337, 2.784e-8
0.336, 2.347e-8
0.335, 1.916e-8
0.334, 1.464e-8
0.333, 1.007e-8
0.332, 5.199e-9
0.331, 3.274e-10
0.330, -4.863e-9
0.329, -1.010e-8
0.328, -1.591e-8
0.327, -2.208e-8
0.326, -2.930e-8
0.325, -3.756e-8
0.324, -4.689e-8
0.323, -5.660e-8
0.322, -6.673e-8
0.321, -7.621e-8
0.320, -8.512e-8
0.319, -9.304e-8
0.318, -1.002e-7
0.317, -1.064e-7
0.316, -1.128e-7
0.315, -1.195e-7
0.314, -1.272e-7
0.313, -1.359e-7
0.312, -1.461e-7
0.311, -1.572e-7
0.310, -1.696e-7
0.309, -1.825e-7
0.308, -1.958e-7
0.307, -2.083e-7
0.306, -2.204e-7
0.305, -2.318e-7
0.304, -2.442e-7
0.303, -2.587e-7
0.302, -2.766e-7
0.301, -2.961e-7
0.300, -3.156e-7
0.299, -3.324e-7
0.298, -3.462e-7
0.297, -3.581e-7
0.296, -3.716e-7
0.295, -3.879e-7
0.294, -4.080e-7
0.293, -4.302e-7
0.292, -4.530e-7
0.291, -4.752e-7
0.290, -4.986e-7
0.289, -5.226e-7
0.288, -5.477e-7
0.287, -5.729e-7
0.286, -5.983e-7
0.285, -6.241e-7
0.284, -6.520e-7
0.283, -6.819e-7
0.282, -7.145e-7
0.281, -7.480e-7
0.280, -7.831e-7
0.279, -8.181e-7
0.278, -8.527e-7
0.277, -8.871e-7
0.276, -9.230e-7
0.275, -9.596e-7
0.274, -9.983e-7
0.273, -1.038e-6
0.272, -1.077e-6
0.271, -1.119e-6
0.270, -1.165e-6
0.269, -1.214e-6
0.268, -1.265e-6
0.267, -1.316e-6
0.266, -1.366e-6
0.265, -1.416e-6
0.264, -1.469e-6
0.263, -1.526e-6
0.262, -1.585e-6
0.261, -1.648e-6
0.260, -1.713e-6
0.259, -1.778e-6
0.258, -1.844e-6
0.257, -1.912e-6
0.256, -1.984e-6
0.255, -2.059e-6
0.254, -2.137e-6
0.253, -2.215e-6
0.252, -2.295e-6
0.251, -2.375e-6
0.250, -2.459e-6
0.249, -2.546e-6
0.248, -2.636e-6
0.247, -2.730e-6
0.246, -2.826e-6
0.245, -2.926e-6
0.244, -3.030e-6
0.243, -3.134e-6
0.242, -3.240e-6
0.241, -3.345e-6
0.240, -3.454e-6
0.239, -3.566e-6
0.238, -3.684e-6
0.237, -3.804e-6
0.236, -3.928e-6
0.235, -4.053e-6
0.234, -4.183e-6
0.233, -4.316e-6
0.232, -4.455e-6
0.231, -4.597e-6
0.230, -4.741e-6
0.229, -4.883e-6
0.228, -5.026e-6
0.227, -5.168e-6
0.226, -5.314e-6
0.225, -5.465e-6
0.224, -5.621e-6
0.223, -5.779e-6
0.222, -5.941e-6
0.221, -6.103e-6
0.220, -6.268e-6
0.219, -6.436e-6
0.218, -6.608e-6
0.217, -6.780e-6
0.216, -6.954e-6
0.215, -7.124e-6
0.214, -7.292e-6
0.213, -7.460e-6
0.212, -7.632e-6
0.211, -7.808e-6
0.210, -7.990e-6
0.209, -8.173e-6
0.208, -8.355e-6
0.207, -8.533e-6
0.206, -8.709e-6
0.205, -8.880e-6
0.204, -9.054e-6
0.203, -9.230e-6
0.202, -9.409e-6
0.201, -9.586e-6
0.200, -9.760e-6
0.199, -9.930e-6
0.198, -1.010e-5
0.197, -1.027e-5
0.196, -1.044e-5
0.195, -1.061e-5
0.194, -1.077e-5
0.193, -1.093e-5
0.192, -1.109e-5
0.191, -1.124e-5
0.190, -1.139e-5
0.189, -1.154e-5
0.188, -1.168e-5
0.187, -1.181e-5
0.186, -1.194e-5
0.185, -1.207e-5
0.184, -1.220e-5
0.183, -1.232e-5
0.182, -1.244e-5
0.181, -1.255e-5
0.180, -1.267e-5
0.179, -1.277e-5
0.178, -1.287e-5
0.177, -1.296e-5
0.176, -1.305e-5
0.175, -1.312e-5
0.174, -1.320e-5
0.173, -1.326e-5
0.172, -1.333e-5
0.171, -1.339e-5
0.170, -1.345e-5
0.169, -1.350e-5
0.168, -1.355e-5
0.167, -1.359e-5
0.166, -1.363e-5
0.165, -1.366e-5
0.164, -1.368e-5
0.163, -1.371e-5
0.162, -1.372e-5
0.161, -1.373e-5
0.160, -1.374e-5
0.159, -1.374e-5
0.158, -1.374e-5
0.157, -1.374e-5
0.156, -1.374e-5
0.155, -1.373e-5
0.154, -1.371e-5
0.153, -1.370e-5
0.152, -1.368e-5
0.151, -1.365e-5
0.150, -1.362e-5
0.149, -1.359e-5
0.148, -1.355e-5
0.147, -1.351e-5
0.146, -1.347e-5
0.145, -1.342e-5
0.144, -1.338e-5
0.143, -1.334e-5
0.142, -1.329e-5
0.141, -1.324e-5
0.140, -1.318e-5
0.139, -1.313e-5
0.138, -1.308e-5
0.137, -1.302e-5
0.136, -1.297e-5
0.135, -1.290e-5
0.134, -1.284e-5
0.133, -1.278e-5
0.132, -1.271e-5
0.131, -1.265e-5
0.130, -1.259e-5
0.129, -1.253e-5
0.128, -1.246e-5
0.127, -1.240e-5
0.126, -1.233e-5
0.125, -1.226e-5
0.124, -1.219e-5
0.123, -1.212e-5
0.122, -1.206e-5
0.121, -1.199e-5
0.120, -1.192e-5
0.119, -1.185e-5
0.118, -1.178e-5
0.117, -1.172e-5
0.116, -1.165e-5
0.115, -1.158e-5
0.114, -1.152e-5
0.113, -1.145e-5
0.112, -1.138e-5
0.111, -1.131e-5
0.110, -1.125e-5
0.109, -1.118e-5
0.108, -1.113e-5
0.107, -1.107e-5
0.106, -1.100e-5
0.105, -1.094e-5
0.104, -1.087e-5
0.103, -1.081e-5
0.102, -1.075e-5
0.101, -1.069e-5
0.100, -1.063e-5
0.099, -1.057e-5
0.098, -1.051e-5
0.097, -1.045e-5
0.096, -1.039e-5
0.095, -1.033e-5
0.094, -1.027e-5
0.093, -1.021e-5
0.092, -1.016e-5
0.091, -1.010e-5
0.090, -1.005e-5
0.089, -9.995e-6
0.088, -9.940e-6
0.087, -9.886e-6
0.086, -9.834e-6
0.085, -9.782e-6
0.084, -9.733e-6
0.083, -9.684e-6
0.082, -9.636e-6
0.081, -9.586e-6
0.080, -9.535e-6
0.079, -9.485e-6
0.078, -9.437e-6
0.077, -9.391e-6
0.076, -9.345e-6
0.075, -9.298e-6
0.074, -9.253e-6
0.073, -9.209e-6
0.072, -9.168e-6
0.071, -9.129e-6
0.070, -9.086e-6
0.069, -9.043e-6
0.068, -8.999e-6
0.067, -8.957e-6
0.066, -8.918e-6
0.065, -8.880e-6
0.064, -8.840e-6
0.063, -8.799e-6
0.062, -8.760e-6
0.061, -8.721e-6
0.060, -8.685e-6
0.059, -8.650e-6
0.058, -8.614e-6
0.057, -8.575e-6
0.056, -8.537e-6
0.055, -8.500e-6
0.054, -8.465e-6
0.053, -8.433e-6
0.052, -8.400e-6
0.051, -8.366e-6
0.050, -8.330e-6
0.049, -8.294e-6
0.048, -8.259e-6
0.047, -8.228e-6
0.046, -8.201e-6
0.045, -8.173e-6
0.044, -8.145e-6
0.043, -8.114e-6
0.042, -8.082e-6
0.041, -8.050e-6
0.040, -8.019e-6
0.039, -7.990e-6
0.038, -7.961e-6
0.037, -7.933e-6
0.036, -7.904e-6
0.035, -7.876e-6
0.034, -7.847e-6
0.033, -7.819e-6
0.032, -7.792e-6
0.031, -7.764e-6
0.030, -7.738e-6
0.029, -7.715e-6
0.028, -7.693e-6
0.027, -7.672e-6
0.026, -7.648e-6
0.025, -7.621e-6
0.024, -7.593e-6
0.023, -7.565e-6
0.022, -7.539e-6
0.021, -7.513e-6
0.020, -7.489e-6
0.019, -7.467e-6
0.018, -7.448e-6
0.017, -7.429e-6
0.016, -7.408e-6
0.015, -7.386e-6
0.014, -7.364e-6
0.013, -7.342e-6
0.012, -7.321e-6
0.011, -7.300e-6
0.010, -7.279e-6
0.009, -7.257e-6
0.008, -7.237e-6
0.007, -7.220e-6
0.006, -7.206e-6
0.005, -7.193e-6
0.004, -7.178e-6
0.003, -7.158e-6
0.002, -7.136e-6
0.001, -7.113e-6
0.000, -7.091e-6
-0.001, -7.071e-6
-0.002, -7.052e-6
-0.003, -7.033e-6
-0.004, -7.013e-6
-0.005, -6.994e-6
-0.006, -6.977e-6
-0.007, -6.962e-6
-0.008, -6.947e-6
-0.009, -6.931e-6
-0.010, -6.913e-6
-0.011, -6.894e-6
-0.012, -6.875e-6
-0.013, -6.857e-6
-0.014, -6.841e-6
-0.015, -6.826e-6
-0.016, -6.810e-6
-0.017, -6.793e-6
-0.018, -6.775e-6
-0.019, -6.757e-6
-0.020, -6.741e-6
-0.021, -6.727e-6
-0.022, -6.716e-6
-0.023, -6.706e-6
-0.024, -6.695e-6
-0.025, -6.682e-6
-0.026, -6.665e-6
-0.027, -6.647e-6
-0.028, -6.629e-6
-0.029, -6.612e-6
-0.030, -6.599e-6
-0.031, -6.586e-6
-0.032, -6.574e-6
-0.033, -6.561e-6
-0.034, -6.547e-6
-0.035, -6.533e-6
-0.036, -6.518e-6
-0.037, -6.504e-6
-0.038, -6.492e-6
-0.039, -6.481e-6
-0.040, -6.470e-6
-0.041, -6.459e-6
-0.042, -6.447e-6
-0.043, -6.433e-6
-0.044, -6.418e-6
-0.045, -6.403e-6
-0.046, -6.388e-6
-0.047, -6.375e-6
-0.048, -6.362e-6
-0.049, -6.350e-6
-0.050, -6.338e-6
-0.051, -6.326e-6
-0.052, -6.314e-6
-0.053, -6.301e-6
-0.054, -6.288e-6
-0.055, -6.275e-6
-0.056, -6.263e-6
-0.057, -6.252e-6
-0.058, -6.242e-6
-0.059, -6.233e-6
-0.060, -6.226e-6
-0.061, -6.220e-6
-0.062, -6.214e-6
-0.063, -6.207e-6
-0.064, -6.197e-6
-0.065, -6.185e-6
-0.066, -6.171e-6
-0.067, -6.157e-6
-0.068, -6.142e-6
-0.069, -6.129e-6
-0.070, -6.117e-6
-0.071, -6.107e-6
-0.072, -6.098e-6
-0.073, -6.089e-6
-0.074, -6.080e-6
-0.075, -6.071e-6
-0.076, -6.061e-6
-0.077, -6.050e-6
-0.078, -6.039e-6
-0.079, -6.029e-6
-0.080, -6.018e-6
-0.081, -6.008e-6
-0.082, -5.999e-6
-0.083, -5.991e-6
-0.084, -5.984e-6
-0.085, -5.978e-6
-0.086, -5.971e-6
-0.087, -5.964e-6
-0.088, -5.955e-6
-0.089, -5.945e-6
-0.090, -5.934e-6
-0.091, -5.923e-6
-0.092, -5.912e-6
-0.093, -5.901e-6
-0.094, -5.891e-6
-0.095, -5.881e-6
-0.096, -5.873e-6
-0.097, -5.865e-6
-0.098, -5.858e-6
-0.099, -5.851e-6
-0.100, -5.844e-6
-0.101, -5.836e-6
-0.102, -5.829e-6
-0.103, -5.820e-6
-0.104, -5.812e-6
-0.105, -5.804e-6
-0.106, -5.795e-6
-0.107, -5.786e-6
-0.108, -5.777e-6
-0.109, -5.769e-6
-0.110, -5.762e-6
-0.111, -5.755e-6
-0.112, -5.749e-6
-0.113, -5.744e-6
-0.114, -5.739e-6
-0.115, -5.735e-6
-0.116, -5.731e-6
-0.117, -5.728e-6
-0.118, -5.723e-6
-0.119, -5.718e-6
-0.120, -5.711e-6
-0.121, -5.703e-6
-0.122, -5.695e-6
-0.123, -5.686e-6
-0.124, -5.677e-6
-0.125, -5.669e-6
-0.126, -5.660e-6
-0.127, -5.652e-6
-0.128, -5.644e-6
-0.129, -5.637e-6
-0.130, -5.630e-6
-0.131, -5.624e-6
-0.132, -5.618e-6
-0.133, -5.612e-6
-0.134, -5.607e-6
-0.135, -5.602e-6
-0.136, -5.597e-6
-0.137, -5.591e-6
-0.138, -5.585e-6
-0.139, -5.578e-6
-0.140, -5.571e-6
-0.141, -5.564e-6
-0.142, -5.557e-6
-0.143, -5.550e-6
-0.144, -5.543e-6
-0.145, -5.536e-6
-0.146, -5.529e-6
-0.147, -5.522e-6
-0.148, -5.517e-6
-0.149, -5.511e-6
-0.150, -5.506e-6
-0.151, -5.502e-6
-0.152, -5.498e-6
-0.153, -5.495e-6
-0.154, -5.491e-6
-0.155, -5.487e-6
-0.156, -5.483e-6
-0.157, -5.479e-6
-0.158, -5.475e-6
-0.159, -5.470e-6
-0.160, -5.465e-6
-0.161, -5.460e-6
-0.162, -5.455e-6
-0.163, -5.449e-6
-0.164, -5.444e-6
-0.165, -5.438e-6
-0.166, -5.433e-6
-0.167, -5.427e-6
-0.168, -5.422e-6
-0.169, -5.417e-6
-0.170, -5.412e-6
-0.171, -5.407e-6
-0.172, -5.402e-6
-0.173, -5.397e-6
-0.174, -5.393e-6
-0.175, -5.388e-6
-0.176, -5.384e-6
-0.177, -5.380e-6
-0.178, -5.377e-6
-0.179, -5.373e-6
-0.180, -5.370e-6
-0.181, -5.366e-6
-0.182, -5.362e-6
-0.183, -5.357e-6
-0.184, -5.354e-6
-0.185, -5.350e-6
-0.186, -5.346e-6
-0.187, -5.342e-6
-0.188, -5.338e-6
-0.189, -5.334e-6
-0.190, -5.330e-6
-0.191, -5.326e-6
-0.192, -5.322e-6
-0.193, -5.318e-6
-0.194, -5.314e-6
-0.195, -5.311e-6
-0.196, -5.307e-6
-0.197, -5.303e-6
-0.198, -5.299e-6
-0.199, -5.295e-6
-0.200, -5.197e-6
-0.199, -5.109e-6
-0.198, -5.037e-6
-0.197, -4.981e-6
-0.196, -4.946e-6
-0.195, -4.921e-6
-0.194, -4.900e-6
-0.193, -4.877e-6
-0.192, -4.856e-6
-0.191, -4.836e-6
-0.190, -4.816e-6
-0.189, -4.797e-6
-0.188, -4.781e-6
-0.187, -4.768e-6
-0.186, -4.756e-6
-0.185, -4.744e-6
-0.184, -4.729e-6
-0.183, -4.712e-6
-0.182, -4.693e-6
-0.181, -4.674e-6
-0.180, -4.657e-6
-0.179, -4.642e-6
-0.178, -4.630e-6
-0.177, -4.618e-6
-0.176, -4.606e-6
-0.175, -4.593e-6
-0.174, -4.579e-6
-0.173, -4.565e-6
-0.172, -4.552e-6
-0.171, -4.539e-6
-0.170, -4.528e-6
-0.169, -4.518e-6
-0.168, -4.509e-6
-0.167, -4.500e-6
-0.166, -4.491e-6
-0.165, -4.480e-6
-0.164, -4.469e-6
-0.163, -4.456e-6
-0.162, -4.444e-6
-0.161, -4.432e-6
-0.160, -4.421e-6
-0.159, -4.411e-6
-0.158, -4.402e-6
-0.157, -4.393e-6
-0.156, -4.385e-6
-0.155, -4.376e-6
-0.154, -4.366e-6
-0.153, -4.356e-6
-0.152, -4.346e-6
-0.151, -4.336e-6
-0.150, -4.325e-6
-0.149, -4.315e-6
-0.148, -4.305e-6
-0.147, -4.296e-6
-0.146, -4.288e-6
-0.145, -4.281e-6
-0.144, -4.275e-6
-0.143, -4.270e-6
-0.142, -4.265e-6
-0.141, -4.261e-6
-0.140, -4.256e-6
-0.139, -4.250e-6
-0.138, -4.242e-6
-0.137, -4.233e-6
-0.136, -4.224e-6
-0.135, -4.214e-6
-0.134, -4.204e-6
-0.133, -4.194e-6
-0.132, -4.185e-6
-0.131, -4.176e-6
-0.130, -4.167e-6
-0.129, -4.160e-6
-0.128, -4.153e-6
-0.127, -4.147e-6
-0.126, -4.142e-6
-0.125, -4.136e-6
-0.124, -4.130e-6
-0.123, -4.123e-6
-0.122, -4.117e-6
-0.121, -4.109e-6
-0.120, -4.102e-6
-0.119, -4.094e-6
-0.118, -4.086e-6
-0.117, -4.078e-6
-0.116, -4.070e-6
-0.115, -4.063e-6
-0.114, -4.057e-6
-0.113, -4.050e-6
-0.112, -4.044e-6
-0.111, -4.038e-6
-0.110, -4.033e-6
-0.109, -4.028e-6
-0.108, -4.024e-6
-0.107, -4.020e-6
-0.106, -4.016e-6
-0.105, -4.011e-6
-0.104, -4.006e-6
-0.103, -4.000e-6
-0.102, -3.994e-6
-0.101, -3.987e-6
-0.100, -3.980e-6
-0.099, -3.973e-6
-0.098, -3.966e-6
-0.097, -3.959e-6
-0.096, -3.952e-6
-0.095, -3.945e-6
-0.094, -3.938e-6
-0.093, -3.931e-6
-0.092, -3.924e-6
-0.091, -3.917e-6
-0.090, -3.911e-6
-0.089, -3.906e-6
-0.088, -3.900e-6
-0.087, -3.895e-6
-0.086, -3.890e-6
-0.085, -3.885e-6
-0.084, -3.881e-6
-0.083, -3.876e-6
-0.082, -3.870e-6
-0.081, -3.864e-6
-0.080, -3.858e-6
-0.079, -3.852e-6
-0.078, -3.845e-6
-0.077, -3.839e-6
-0.076, -3.834e-6
-0.075, -3.828e-6
-0.074, -3.823e-6
-0.073, -3.818e-6
-0.072, -3.813e-6
-0.071, -3.808e-6
-0.070, -3.803e-6
-0.069, -3.799e-6
-0.068, -3.795e-6
-0.067, -3.791e-6
-0.066, -3.787e-6
-0.065, -3.783e-6
-0.064, -3.781e-6
-0.063, -3.778e-6
-0.062, -3.775e-6
-0.061, -3.773e-6
-0.060, -3.770e-6
-0.059, -3.767e-6
-0.058, -3.763e-6
-0.057, -3.759e-6
-0.056, -3.754e-6
-0.055, -3.748e-6
-0.054, -3.742e-6
-0.053, -3.735e-6
-0.052, -3.728e-6
-0.051, -3.721e-6
-0.050, -3.715e-6
-0.049, -3.708e-6
-0.048, -3.702e-6
-0.047, -3.696e-6
-0.046, -3.690e-6
-0.045, -3.684e-6
-0.044, -3.679e-6
-0.043, -3.674e-6
-0.042, -3.670e-6
-0.041, -3.665e-6
-0.040, -3.661e-6
-0.039, -3.657e-6
-0.038, -3.653e-6
-0.037, -3.649e-6
-0.036, -3.646e-6
-0.035, -3.642e-6
-0.034, -3.637e-6
-0.033, -3.633e-6
-0.032, -3.629e-6
-0.031, -3.623e-6
-0.030, -3.618e-6
-0.029, -3.613e-6
-0.028, -3.607e-6
-0.027, -3.602e-6
-0.026, -3.596e-6
-0.025, -3.591e-6
-0.024, -3.586e-6
-0.023, -3.581e-6
-0.022, -3.576e-6
-0.021, -3.571e-6
-0.020, -3.566e-6
-0.019, -3.561e-6
-0.018, -3.556e-6
-0.017, -3.552e-6
-0.016, -3.547e-6
-0.015, -3.543e-6
-0.014, -3.539e-6
-0.013, -3.536e-6
-0.012, -3.532e-6
-0.011, -3.529e-6
-0.010, -3.525e-6
-0.009, -3.522e-6
-0.008, -3.518e-6
-0.007, -3.514e-6
-0.006, -3.510e-6
-0.005, -3.505e-6
-0.004, -3.500e-6
-0.003, -3.494e-6
-0.002, -3.488e-6
-0.001, -3.482e-6
-0.000, -3.475e-6
0.001, -3.469e-6
0.002, -3.464e-6
0.003, -3.460e-6
0.004, -3.455e-6
0.005, -3.450e-6
0.006, -3.445e-6
0.007, -3.440e-6
0.008, -3.435e-6
0.009, -3.430e-6
0.010, -3.425e-6
0.011, -3.420e-6
0.012, -3.416e-6
0.013, -3.412e-6
0.014, -3.407e-6
0.015, -3.403e-6
0.016, -3.398e-6
0.017, -3.393e-6
0.018, -3.389e-6
0.019, -3.384e-6
0.020, -3.378e-6
0.021, -3.372e-6
0.022, -3.366e-6
0.023, -3.360e-6
0.024, -3.353e-6
0.025, -3.346e-6
0.026, -3.340e-6
0.027, -3.334e-6
0.028, -3.328e-6
0.029, -3.322e-6
0.030, -3.317e-6
0.031, -3.311e-6
0.032, -3.306e-6
0.033, -3.301e-6
0.034, -3.297e-6
0.035, -3.294e-6
0.036, -3.291e-6
0.037, -3.288e-6
0.038, -3.286e-6
0.039, -3.284e-6
0.040, -3.282e-6
0.041, -3.278e-6
0.042, -3.274e-6
0.043, -3.267e-6
0.044, -3.260e-6
0.045, -3.251e-6
0.046, -3.241e-6
0.047, -3.230e-6
0.048, -3.217e-6
0.049, -3.204e-6
0.050, -3.192e-6
0.051, -3.180e-6
0.052, -3.171e-6
0.053, -3.161e-6
0.054, -3.152e-6
0.055, -3.142e-6
0.056, -3.131e-6
0.057, -3.120e-6
0.058, -3.109e-6
0.059, -3.097e-6
0.060, -3.086e-6
0.061, -3.075e-6
0.062, -3.064e-6
0.063, -3.054e-6
0.064, -3.044e-6
0.065, -3.034e-6
0.066, -3.023e-6
0.067, -3.010e-6
0.068, -2.995e-6
0.069, -2.979e-6
0.070, -2.963e-6
0.071, -2.947e-6
0.072, -2.933e-6
0.073, -2.919e-6
0.074, -2.905e-6
0.075, -2.889e-6
0.076, -2.870e-6
0.077, -2.850e-6
0.078, -2.831e-6
0.079, -2.815e-6
0.080, -2.802e-6
0.081, -2.788e-6
0.082, -2.771e-6
0.083, -2.749e-6
0.084, -2.725e-6
0.085, -2.700e-6
0.086, -2.676e-6
0.087, -2.652e-6
0.088, -2.628e-6
0.089, -2.604e-6
0.090, -2.580e-6
0.091, -2.556e-6
0.092, -2.531e-6
0.093, -2.503e-6
0.094, -2.472e-6
0.095, -2.440e-6
0.096, -2.408e-6
0.097, -2.377e-6
0.098, -2.348e-6
0.099, -2.319e-6
0.100, -2.287e-6
0.101, -2.250e-6
0.102, -2.209e-6
0.103, -2.168e-6
0.104, -2.125e-6
0.105, -2.084e-6
0.106, -2.042e-6
0.107, -1.997e-6
0.108, -1.953e-6
0.109, -1.910e-6
0.110, -1.867e-6
0.111, -1.822e-6
0.112, -1.773e-6
0.113, -1.718e-6
0.114, -1.660e-6
0.115, -1.601e-6
0.116, -1.541e-6
0.117, -1.481e-6
0.118, -1.421e-6
0.119, -1.359e-6
0.120, -1.297e-6
0.121, -1.231e-6
0.122, -1.162e-6
0.123, -1.092e-6
0.124, -1.020e-6
0.125, -9.458e-7
0.126, -8.675e-7
0.127, -7.834e-7
0.128, -6.964e-7
0.129, -6.084e-7
0.130, -5.206e-7
0.131, -4.322e-7
0.132, -3.427e-7
0.133, -2.490e-7
0.134, -1.522e-7
0.135, -5.255e-8
0.136, 5.071e-8
0.137, 1.574e-7
0.138, 2.664e-7
0.139, 3.789e-7
0.140, 4.929e-7
0.141, 6.084e-7
0.142, 7.268e-7
0.143, 8.491e-7
0.144, 9.741e-7
0.145, 1.102e-6
0.146, 1.232e-6
0.147, 1.365e-6
0.148, 1.499e-6
0.149, 1.639e-6
0.150, 1.781e-6
0.151, 1.928e-6
0.152, 2.079e-6
0.153, 2.233e-6
0.154, 2.388e-6
0.155, 2.544e-6
0.156, 2.702e-6
0.157, 2.860e-6
0.158, 3.019e-6
0.159, 3.181e-6
0.160, 3.343e-6
0.161, 3.509e-6
0.162, 3.680e-6
0.163, 3.856e-6
0.164, 4.033e-6
0.165, 4.211e-6
0.166, 4.388e-6
0.167, 4.564e-6
0.168, 4.742e-6
0.169, 4.924e-6
0.170, 5.105e-6
0.171, 5.288e-6
0.172, 5.468e-6
0.173, 5.650e-6
0.174, 5.831e-6
0.175, 6.013e-6
0.176, 6.195e-6
0.177, 6.380e-6
0.178, 6.565e-6
0.179, 6.752e-6
0.180, 6.934e-6
0.181, 7.111e-6
0.182, 7.284e-6
0.183, 7.455e-6
0.184, 7.624e-6
0.185, 7.795e-6
0.186, 7.961e-6
0.187, 8.124e-6
0.188, 8.282e-6
0.189, 8.435e-6
0.190, 8.586e-6
0.191, 8.736e-6
0.192, 8.885e-6
0.193, 9.031e-6
0.194, 9.174e-6
0.195, 9.311e-6
0.196, 9.440e-6
0.197, 9.565e-6
0.198, 9.684e-6
0.199, 9.799e-6
0.200, 9.911e-6
0.201, 1.002e-5
0.202, 1.012e-5
0.203, 1.022e-5
0.204, 1.030e-5
0.205, 1.038e-5
0.206, 1.045e-5
0.207, 1.053e-5
0.208, 1.060e-5
0.209, 1.067e-5
0.210, 1.073e-5
0.211, 1.079e-5
0.212, 1.084e-5
0.213, 1.088e-5
0.214, 1.092e-5
0.215, 1.096e-5
0.216, 1.099e-5
0.217, 1.102e-5
0.218, 1.104e-5
0.219, 1.106e-5
0.220, 1.107e-5
0.221, 1.108e-5
0.222, 1.108e-5
0.223, 1.107e-5
0.224, 1.107e-5
0.225, 1.106e-5
0.226, 1.104e-5
0.227, 1.103e-5
0.228, 1.101e-5
0.229, 1.098e-5
0.230, 1.096e-5
0.231, 1.093e-5
0.232, 1.090e-5
0.233, 1.087e-5
0.234, 1.083e-5
0.235, 1.079e-5
0.236, 1.074e-5
0.237, 1.069e-5
0.238, 1.064e-5
0.239, 1.059e-5
0.240, 1.054e-5
0.241, 1.049e-5
0.242, 1.043e-5
0.243, 1.038e-5
0.244, 1.033e-5
0.245, 1.027e-5
0.246, 1.021e-5
0.247, 1.015e-5
0.248, 1.008e-5
0.249, 1.001e-5
0.250, 9.946e-6
0.251, 9.882e-6
0.252, 9.818e-6
0.253, 9.754e-6
0.254, 9.689e-6
0.255, 9.623e-6
0.256, 9.555e-6
0.257, 9.487e-6
0.258, 9.421e-6
0.259, 9.355e-6
0.260, 9.288e-6
0.261, 9.221e-6
0.262, 9.151e-6
0.263, 9.082e-6
0.264, 9.013e-6
0.265, 8.945e-6
0.266, 8.879e-6
0.267, 8.814e-6
