Mar. 30, 2023   16:32:25
Cyclic Voltammetry
File: 05mmol200mvs
Data Source:  Experiment
Instrument Model:  CHI600B
Header: 
Note: 

Init E (V) = 0.268
High E (V) = 0.5
Low E (V) = -0.05
Init P/N = N
Scan Rate (V/s) = 0.2
Segment = 4
Sample Interval (V) = 0.001
Quiet Time (sec) = 2
Sensitivity (A/V) = 1e-5

Segment 1:

Segment 2:
Ep = 0.316V
ip = 4.419e-5A
Ah = 1.715e-5C

Segment 3:
Ep = 0.206V
ip = -4.035e-5A
Ah = -1.535e-5C

Segment 4:

Potential/V, Current/A, Charge/C

Segment 1:
0.267, 1.246e-6, 6.228e-9
0.266, -3.758e-8, 6.040e-9
0.265, -1.149e-6, 2.953e-10
0.264, -2.164e-6, -1.053e-8
0.263, -3.147e-6, -2.626e-8
0.262, -4.102e-6, -4.677e-8
0.261, -4.987e-6, -7.170e-8
0.260, -5.801e-6, -1.007e-7
0.259, -6.631e-6, -1.339e-7
0.258, -7.462e-6, -1.712e-7
0.257, -8.228e-6, -2.123e-7
0.256, -8.949e-6, -2.571e-7
0.255, -9.690e-6, -3.055e-7
0.254, -1.042e-5, -3.576e-7
0.253, -1.112e-5, -4.132e-7
0.252, -1.174e-5, -4.720e-7
0.251, -1.243e-5, -5.341e-7
0.250, -1.311e-5, -5.996e-7
0.249, -1.372e-5, -6.682e-7
0.248, -1.430e-5, -7.397e-7
0.247, -1.491e-5, -8.143e-7
0.246, -1.553e-5, -8.919e-7
0.245, -1.609e-5, -9.723e-7
0.244, -1.659e-5, -1.055e-6
0.243, -1.716e-5, -1.141e-6
0.242, -1.771e-5, -1.230e-6
0.241, -1.822e-5, -1.321e-6
0.240, -1.868e-5, -1.414e-6
0.239, -1.917e-5, -1.510e-6
0.238, -1.967e-5, -1.608e-6
0.237, -2.012e-5, -1.709e-6
0.236, -2.054e-5, -1.812e-6
0.235, -2.099e-5, -1.917e-6
0.234, -2.143e-5, -2.024e-6
0.233, -2.184e-5, -2.133e-6
0.232, -2.219e-5, -2.244e-6
0.231, -2.257e-5, -2.357e-6
0.230, -2.297e-5, -2.472e-6
0.229, -2.332e-5, -2.588e-6
0.228, -2.363e-5, -2.706e-6
0.227, -2.397e-5, -2.826e-6
0.226, -2.431e-5, -2.948e-6
0.225, -2.461e-5, -3.071e-6
0.224, -2.489e-5, -3.195e-6
0.223, -2.518e-5, -3.321e-6
0.222, -2.546e-5, -3.448e-6
0.221, -2.570e-5, -3.577e-6
0.220, -2.591e-5, -3.706e-6
0.219, -2.615e-5, -3.837e-6
0.218, -2.639e-5, -3.969e-6
0.217, -2.659e-5, -4.102e-6
0.216, -2.674e-5, -4.236e-6
0.215, -2.693e-5, -4.370e-6
0.214, -2.711e-5, -4.506e-6
0.213, -2.725e-5, -4.642e-6
0.212, -2.736e-5, -4.779e-6
0.211, -2.751e-5, -4.917e-6
0.210, -2.765e-5, -5.055e-6
0.209, -2.773e-5, -5.193e-6
0.208, -2.780e-5, -5.332e-6
0.207, -2.790e-5, -5.472e-6
0.206, -2.799e-5, -5.612e-6
0.205, -2.805e-5, -5.752e-6
0.204, -2.806e-5, -5.893e-6
0.203, -2.812e-5, -6.033e-6
0.202, -2.817e-5, -6.174e-6
0.201, -2.818e-5, -6.315e-6
0.200, -2.820e-5, -6.456e-6
0.199, -2.820e-5, -6.597e-6
0.198, -2.822e-5, -6.738e-6
0.197, -2.821e-5, -6.879e-6
0.196, -2.817e-5, -7.020e-6
0.195, -2.816e-5, -7.161e-6
0.194, -2.815e-5, -7.301e-6
0.193, -2.810e-5, -7.442e-6
0.192, -2.802e-5, -7.582e-6
0.191, -2.798e-5, -7.722e-6
0.190, -2.794e-5, -7.862e-6
0.189, -2.787e-5, -8.001e-6
0.188, -2.778e-5, -8.140e-6
0.187, -2.770e-5, -8.278e-6
0.186, -2.763e-5, -8.416e-6
0.185, -2.754e-5, -8.554e-6
0.184, -2.744e-5, -8.691e-6
0.183, -2.736e-5, -8.828e-6
0.182, -2.727e-5, -8.965e-6
0.181, -2.716e-5, -9.100e-6
0.180, -2.704e-5, -9.235e-6
0.179, -2.694e-5, -9.370e-6
0.178, -2.684e-5, -9.504e-6
0.177, -2.671e-5, -9.638e-6
0.176, -2.659e-5, -9.771e-6
0.175, -2.647e-5, -9.903e-6
0.174, -2.636e-5, -1.004e-5
0.173, -2.621e-5, -1.017e-5
0.172, -2.608e-5, -1.030e-5
0.171, -2.596e-5, -1.043e-5
0.170, -2.584e-5, -1.056e-5
0.169, -2.570e-5, -1.068e-5
0.168, -2.556e-5, -1.081e-5
0.167, -2.543e-5, -1.094e-5
0.166, -2.531e-5, -1.107e-5
0.165, -2.516e-5, -1.119e-5
0.164, -2.502e-5, -1.132e-5
0.163, -2.490e-5, -1.144e-5
0.162, -2.476e-5, -1.156e-5
0.161, -2.460e-5, -1.169e-5
0.160, -2.446e-5, -1.181e-5
0.159, -2.433e-5, -1.193e-5
0.158, -2.421e-5, -1.205e-5
0.157, -2.406e-5, -1.217e-5
0.156, -2.392e-5, -1.229e-5
0.155, -2.380e-5, -1.241e-5
0.154, -2.367e-5, -1.253e-5
0.153, -2.353e-5, -1.265e-5
0.152, -2.338e-5, -1.276e-5
0.151, -2.326e-5, -1.288e-5
0.150, -2.312e-5, -1.300e-5
0.149, -2.298e-5, -1.311e-5
0.148, -2.285e-5, -1.323e-5
0.147, -2.273e-5, -1.334e-5
0.146, -2.260e-5, -1.345e-5
0.145, -2.247e-5, -1.356e-5
0.144, -2.234e-5, -1.368e-5
0.143, -2.222e-5, -1.379e-5
0.142, -2.210e-5, -1.390e-5
0.141, -2.197e-5, -1.401e-5
0.140, -2.184e-5, -1.412e-5
0.139, -2.173e-5, -1.423e-5
0.138, -2.160e-5, -1.433e-5
0.137, -2.147e-5, -1.444e-5
0.136, -2.136e-5, -1.455e-5
0.135, -2.125e-5, -1.465e-5
0.134, -2.113e-5, -1.476e-5
0.133, -2.101e-5, -1.486e-5
0.132, -2.090e-5, -1.497e-5
0.131, -2.079e-5, -1.507e-5
0.130, -2.068e-5, -1.518e-5
0.129, -2.056e-5, -1.528e-5
0.128, -2.045e-5, -1.538e-5
0.127, -2.035e-5, -1.548e-5
0.126, -2.024e-5, -1.558e-5
0.125, -2.013e-5, -1.569e-5
0.124, -2.002e-5, -1.579e-5
0.123, -1.992e-5, -1.588e-5
0.122, -1.981e-5, -1.598e-5
0.121, -1.971e-5, -1.608e-5
0.120, -1.961e-5, -1.618e-5
0.119, -1.952e-5, -1.628e-5
0.118, -1.942e-5, -1.638e-5
0.117, -1.932e-5, -1.647e-5
0.116, -1.922e-5, -1.657e-5
0.115, -1.914e-5, -1.666e-5
0.114, -1.904e-5, -1.676e-5
0.113, -1.894e-5, -1.685e-5
0.112, -1.885e-5, -1.695e-5
0.111, -1.877e-5, -1.704e-5
0.110, -1.867e-5, -1.714e-5
0.109, -1.858e-5, -1.723e-5
0.108, -1.850e-5, -1.732e-5
0.107, -1.842e-5, -1.741e-5
0.106, -1.833e-5, -1.750e-5
0.105, -1.824e-5, -1.760e-5
0.104, -1.816e-5, -1.769e-5
0.103, -1.809e-5, -1.778e-5
0.102, -1.800e-5, -1.787e-5
0.101, -1.791e-5, -1.796e-5
0.100, -1.784e-5, -1.805e-5
0.099, -1.777e-5, -1.813e-5
0.098, -1.768e-5, -1.822e-5
0.097, -1.760e-5, -1.831e-5
0.096, -1.753e-5, -1.840e-5
0.095, -1.746e-5, -1.849e-5
0.094, -1.739e-5, -1.857e-5
0.093, -1.730e-5, -1.866e-5
0.092, -1.723e-5, -1.875e-5
0.091, -1.717e-5, -1.883e-5
0.090, -1.709e-5, -1.892e-5
0.089, -1.702e-5, -1.900e-5
0.088, -1.694e-5, -1.909e-5
0.087, -1.688e-5, -1.917e-5
0.086, -1.681e-5, -1.925e-5
0.085, -1.673e-5, -1.934e-5
0.084, -1.667e-5, -1.942e-5
0.083, -1.661e-5, -1.950e-5
0.082, -1.655e-5, -1.959e-5
0.081, -1.647e-5, -1.967e-5
0.080, -1.641e-5, -1.975e-5
0.079, -1.636e-5, -1.983e-5
0.078, -1.629e-5, -1.992e-5
0.077, -1.622e-5, -2.000e-5
0.076, -1.616e-5, -2.008e-5
0.075, -1.611e-5, -2.016e-5
0.074, -1.605e-5, -2.024e-5
0.073, -1.599e-5, -2.032e-5
0.072, -1.593e-5, -2.040e-5
0.071, -1.588e-5, -2.048e-5
0.070, -1.582e-5, -2.056e-5
0.069, -1.576e-5, -2.063e-5
0.068, -1.571e-5, -2.071e-5
0.067, -1.566e-5, -2.079e-5
0.066, -1.560e-5, -2.087e-5
0.065, -1.553e-5, -2.095e-5
0.064, -1.548e-5, -2.102e-5
0.063, -1.544e-5, -2.110e-5
0.062, -1.538e-5, -2.118e-5
0.061, -1.532e-5, -2.126e-5
0.060, -1.527e-5, -2.133e-5
0.059, -1.523e-5, -2.141e-5
0.058, -1.517e-5, -2.148e-5
0.057, -1.512e-5, -2.156e-5
0.056, -1.507e-5, -2.163e-5
0.055, -1.503e-5, -2.171e-5
0.054, -1.498e-5, -2.178e-5
0.053, -1.492e-5, -2.186e-5
0.052, -1.488e-5, -2.193e-5
0.051, -1.484e-5, -2.201e-5
0.050, -1.479e-5, -2.208e-5
0.049, -1.474e-5, -2.216e-5
0.048, -1.469e-5, -2.223e-5
0.047, -1.465e-5, -2.230e-5
0.046, -1.460e-5, -2.238e-5
0.045, -1.455e-5, -2.245e-5
0.044, -1.452e-5, -2.252e-5
0.043, -1.448e-5, -2.259e-5
0.042, -1.444e-5, -2.267e-5
0.041, -1.438e-5, -2.274e-5
0.040, -1.434e-5, -2.281e-5
0.039, -1.431e-5, -2.288e-5
0.038, -1.426e-5, -2.295e-5
0.037, -1.422e-5, -2.302e-5
0.036, -1.418e-5, -2.309e-5
0.035, -1.415e-5, -2.316e-5
0.034, -1.410e-5, -2.324e-5
0.033, -1.406e-5, -2.331e-5
0.032, -1.402e-5, -2.338e-5
0.031, -1.399e-5, -2.345e-5
0.030, -1.395e-5, -2.352e-5
0.029, -1.390e-5, -2.358e-5
0.028, -1.386e-5, -2.365e-5
0.027, -1.383e-5, -2.372e-5
0.026, -1.377e-5, -2.379e-5
0.025, -1.373e-5, -2.386e-5
0.024, -1.371e-5, -2.393e-5
0.023, -1.367e-5, -2.400e-5
0.022, -1.363e-5, -2.407e-5
0.021, -1.359e-5, -2.413e-5
0.020, -1.356e-5, -2.420e-5
0.019, -1.353e-5, -2.427e-5
0.018, -1.349e-5, -2.434e-5
0.017, -1.345e-5, -2.440e-5
0.016, -1.342e-5, -2.447e-5
0.015, -1.339e-5, -2.454e-5
0.014, -1.335e-5, -2.460e-5
0.013, -1.332e-5, -2.467e-5
0.012, -1.328e-5, -2.474e-5
0.011, -1.327e-5, -2.480e-5
0.010, -1.322e-5, -2.487e-5
0.009, -1.318e-5, -2.494e-5
0.008, -1.315e-5, -2.500e-5
0.007, -1.313e-5, -2.507e-5
0.006, -1.309e-5, -2.513e-5
0.005, -1.306e-5, -2.520e-5
0.004, -1.303e-5, -2.526e-5
0.003, -1.300e-5, -2.533e-5
0.002, -1.297e-5, -2.539e-5
0.001, -1.293e-5, -2.546e-5
-0.000, -1.291e-5, -2.552e-5
-0.001, -1.288e-5, -2.559e-5
-0.002, -1.284e-5, -2.565e-5
-0.003, -1.281e-5, -2.571e-5
-0.004, -1.279e-5, -2.578e-5
-0.005, -1.277e-5, -2.584e-5
-0.006, -1.273e-5, -2.591e-5
-0.007, -1.269e-5, -2.597e-5
-0.008, -1.268e-5, -2.603e-5
-0.009, -1.265e-5, -2.610e-5
-0.010, -1.262e-5, -2.616e-5
-0.011, -1.259e-5, -2.622e-5
-0.012, -1.256e-5, -2.629e-5
-0.013, -1.254e-5, -2.635e-5
-0.014, -1.250e-5, -2.641e-5
-0.015, -1.247e-5, -2.647e-5
-0.016, -1.244e-5, -2.654e-5
-0.017, -1.243e-5, -2.660e-5
-0.018, -1.240e-5, -2.666e-5
-0.019, -1.236e-5, -2.672e-5
-0.020, -1.234e-5, -2.678e-5
-0.021, -1.232e-5, -2.684e-5
-0.022, -1.229e-5, -2.691e-5
-0.023, -1.226e-5, -2.697e-5
-0.024, -1.223e-5, -2.703e-5
-0.025, -1.221e-5, -2.709e-5
-0.026, -1.219e-5, -2.715e-5
-0.027, -1.215e-5, -2.721e-5
-0.028, -1.214e-5, -2.727e-5
-0.029, -1.212e-5, -2.733e-5
-0.030, -1.209e-5, -2.739e-5
-0.031, -1.206e-5, -2.745e-5
-0.032, -1.204e-5, -2.751e-5
-0.033, -1.202e-5, -2.757e-5
-0.034, -1.199e-5, -2.763e-5
-0.035, -1.196e-5, -2.769e-5
-0.036, -1.195e-5, -2.775e-5
-0.037, -1.193e-5, -2.781e-5
-0.038, -1.190e-5, -2.787e-5
-0.039, -1.187e-5, -2.793e-5
-0.040, -1.185e-5, -2.799e-5
-0.041, -1.184e-5, -2.805e-5
-0.042, -1.181e-5, -2.811e-5
-0.043, -1.178e-5, -2.817e-5
-0.044, -1.176e-5, -2.823e-5
-0.045, -1.175e-5, -2.829e-5
-0.046, -1.172e-5, -2.834e-5
-0.047, -1.169e-5, -2.840e-5
-0.048, -1.167e-5, -2.846e-5
-0.049, -1.166e-5, -2.852e-5
-0.050, -1.154e-5, -2.858e-5

Segment 2:
-0.049, -1.128e-5, -2.863e-5
-0.048, -1.121e-5, -2.869e-5
-0.047, -1.117e-5, -2.874e-5
-0.046, -1.112e-5, -2.880e-5
-0.045, -1.107e-5, -2.886e-5
-0.044, -1.103e-5, -2.891e-5
-0.043, -1.101e-5, -2.897e-5
-0.042, -1.097e-5, -2.902e-5
-0.041, -1.093e-5, -2.908e-5
-0.040, -1.090e-5, -2.913e-5
-0.039, -1.087e-5, -2.918e-5
-0.038, -1.084e-5, -2.924e-5
-0.037, -1.079e-5, -2.929e-5
-0.036, -1.078e-5, -2.935e-5
-0.035, -1.075e-5, -2.940e-5
-0.034, -1.071e-5, -2.945e-5
-0.033, -1.067e-5, -2.951e-5
-0.032, -1.064e-5, -2.956e-5
-0.031, -1.063e-5, -2.961e-5
-0.030, -1.059e-5, -2.967e-5
-0.029, -1.056e-5, -2.972e-5
-0.028, -1.054e-5, -2.977e-5
-0.027, -1.052e-5, -2.982e-5
-0.026, -1.049e-5, -2.988e-5
-0.025, -1.045e-5, -2.993e-5
-0.024, -1.044e-5, -2.998e-5
-0.023, -1.042e-5, -3.003e-5
-0.022, -1.039e-5, -3.009e-5
-0.021, -1.035e-5, -3.014e-5
-0.020, -1.034e-5, -3.019e-5
-0.019, -1.032e-5, -3.024e-5
-0.018, -1.029e-5, -3.029e-5
-0.017, -1.025e-5, -3.034e-5
-0.016, -1.024e-5, -3.039e-5
-0.015, -1.023e-5, -3.045e-5
-0.014, -1.019e-5, -3.050e-5
-0.013, -1.016e-5, -3.055e-5
-0.012, -1.015e-5, -3.060e-5
-0.011, -1.014e-5, -3.065e-5
-0.010, -1.010e-5, -3.070e-5
-0.009, -1.007e-5, -3.075e-5
-0.008, -1.005e-5, -3.080e-5
-0.007, -1.004e-5, -3.085e-5
-0.006, -1.001e-5, -3.090e-5
-0.005, -9.986e-6, -3.095e-5
-0.004, -9.967e-6, -3.100e-5
-0.003, -9.955e-6, -3.105e-5
-0.002, -9.924e-6, -3.110e-5
-0.001, -9.901e-6, -3.115e-5
0.000, -9.876e-6, -3.120e-5
0.001, -9.864e-6, -3.125e-5
0.002, -9.845e-6, -3.130e-5
0.003, -9.811e-6, -3.135e-5
0.004, -9.802e-6, -3.139e-5
0.005, -9.785e-6, -3.144e-5
0.006, -9.760e-6, -3.149e-5
0.007, -9.731e-6, -3.154e-5
0.008, -9.712e-6, -3.159e-5
0.009, -9.705e-6, -3.164e-5
0.010, -9.671e-6, -3.169e-5
0.011, -9.653e-6, -3.173e-5
0.012, -9.635e-6, -3.178e-5
0.013, -9.619e-6, -3.183e-5
0.014, -9.602e-6, -3.188e-5
0.015, -9.568e-6, -3.193e-5
0.016, -9.560e-6, -3.197e-5
0.017, -9.548e-6, -3.202e-5
0.018, -9.515e-6, -3.207e-5
0.019, -9.495e-6, -3.212e-5
0.020, -9.473e-6, -3.216e-5
0.021, -9.465e-6, -3.221e-5
0.022, -9.448e-6, -3.226e-5
0.023, -9.415e-6, -3.231e-5
0.024, -9.406e-6, -3.235e-5
0.025, -9.393e-6, -3.240e-5
0.026, -9.368e-6, -3.245e-5
0.027, -9.338e-6, -3.249e-5
0.028, -9.325e-6, -3.254e-5
0.029, -9.314e-6, -3.259e-5
0.030, -9.285e-6, -3.263e-5
0.031, -9.265e-6, -3.268e-5
0.032, -9.254e-6, -3.273e-5
0.033, -9.236e-6, -3.277e-5
0.034, -9.217e-6, -3.282e-5
0.035, -9.189e-6, -3.286e-5
0.036, -9.174e-6, -3.291e-5
0.037, -9.168e-6, -3.296e-5
0.038, -9.137e-6, -3.300e-5
0.039, -9.113e-6, -3.305e-5
0.040, -9.100e-6, -3.309e-5
0.041, -9.084e-6, -3.314e-5
0.042, -9.068e-6, -3.318e-5
0.043, -9.041e-6, -3.323e-5
0.044, -9.024e-6, -3.327e-5
0.045, -9.017e-6, -3.332e-5
0.046, -8.989e-6, -3.336e-5
0.047, -8.970e-6, -3.341e-5
0.048, -8.956e-6, -3.345e-5
0.049, -8.940e-6, -3.350e-5
0.050, -8.919e-6, -3.354e-5
0.051, -8.889e-6, -3.359e-5
0.052, -8.879e-6, -3.363e-5
0.053, -8.874e-6, -3.368e-5
0.054, -8.846e-6, -3.372e-5
0.055, -8.824e-6, -3.376e-5
0.056, -8.813e-6, -3.381e-5
0.057, -8.797e-6, -3.385e-5
0.058, -8.778e-6, -3.390e-5
0.059, -8.754e-6, -3.394e-5
0.060, -8.735e-6, -3.398e-5
0.061, -8.729e-6, -3.403e-5
0.062, -8.697e-6, -3.407e-5
0.063, -8.681e-6, -3.411e-5
0.064, -8.667e-6, -3.416e-5
0.065, -8.650e-6, -3.420e-5
0.066, -8.633e-6, -3.424e-5
0.067, -8.602e-6, -3.429e-5
0.068, -8.589e-6, -3.433e-5
0.069, -8.583e-6, -3.437e-5
0.070, -8.556e-6, -3.442e-5
0.071, -8.529e-6, -3.446e-5
0.072, -8.516e-6, -3.450e-5
0.073, -8.501e-6, -3.454e-5
0.074, -8.484e-6, -3.459e-5
0.075, -8.452e-6, -3.463e-5
0.076, -8.439e-6, -3.467e-5
0.077, -8.435e-6, -3.471e-5
0.078, -8.401e-6, -3.475e-5
0.079, -8.384e-6, -3.480e-5
0.080, -8.364e-6, -3.484e-5
0.081, -8.351e-6, -3.488e-5
0.082, -8.329e-6, -3.492e-5
0.083, -8.297e-6, -3.496e-5
0.084, -8.286e-6, -3.500e-5
0.085, -8.275e-6, -3.505e-5
0.086, -8.245e-6, -3.509e-5
0.087, -8.219e-6, -3.513e-5
0.088, -8.202e-6, -3.517e-5
0.089, -8.193e-6, -3.521e-5
0.090, -8.164e-6, -3.525e-5
0.091, -8.137e-6, -3.529e-5
0.092, -8.122e-6, -3.533e-5
0.093, -8.103e-6, -3.537e-5
0.094, -8.085e-6, -3.541e-5
0.095, -8.051e-6, -3.545e-5
0.096, -8.036e-6, -3.549e-5
0.097, -8.016e-6, -3.553e-5
0.098, -7.997e-6, -3.557e-5
0.099, -7.958e-6, -3.561e-5
0.100, -7.945e-6, -3.565e-5
0.101, -7.932e-6, -3.569e-5
0.102, -7.901e-6, -3.573e-5
0.103, -7.863e-6, -3.577e-5
0.104, -7.850e-6, -3.581e-5
0.105, -7.832e-6, -3.585e-5
0.106, -7.804e-6, -3.589e-5
0.107, -7.764e-6, -3.593e-5
0.108, -7.746e-6, -3.597e-5
0.109, -7.726e-6, -3.601e-5
0.110, -7.700e-6, -3.604e-5
0.111, -7.660e-6, -3.608e-5
0.112, -7.643e-6, -3.612e-5
0.113, -7.617e-6, -3.616e-5
0.114, -7.591e-6, -3.620e-5
0.115, -7.537e-6, -3.623e-5
0.116, -7.512e-6, -3.627e-5
0.117, -7.494e-6, -3.631e-5
0.118, -7.458e-6, -3.635e-5
0.119, -7.416e-6, -3.638e-5
0.120, -7.389e-6, -3.642e-5
0.121, -7.365e-6, -3.646e-5
0.122, -7.324e-6, -3.649e-5
0.123, -7.288e-6, -3.653e-5
0.124, -7.260e-6, -3.657e-5
0.125, -7.232e-6, -3.660e-5
0.126, -7.194e-6, -3.664e-5
0.127, -7.146e-6, -3.667e-5
0.128, -7.114e-6, -3.671e-5
0.129, -7.083e-6, -3.675e-5
0.130, -7.040e-6, -3.678e-5
0.131, -6.994e-6, -3.682e-5
0.132, -6.955e-6, -3.685e-5
0.133, -6.925e-6, -3.689e-5
0.134, -6.879e-6, -3.692e-5
0.135, -6.827e-6, -3.695e-5
0.136, -6.783e-6, -3.699e-5
0.137, -6.748e-6, -3.702e-5
0.138, -6.696e-6, -3.705e-5
0.139, -6.642e-6, -3.709e-5
0.140, -6.597e-6, -3.712e-5
0.141, -6.553e-6, -3.715e-5
0.142, -6.500e-6, -3.719e-5
0.143, -6.440e-6, -3.722e-5
0.144, -6.388e-6, -3.725e-5
0.145, -6.341e-6, -3.728e-5
0.146, -6.283e-6, -3.731e-5
0.147, -6.211e-6, -3.734e-5
0.148, -6.149e-6, -3.738e-5
0.149, -6.103e-6, -3.741e-5
0.150, -6.038e-6, -3.744e-5
0.151, -5.964e-6, -3.747e-5
0.152, -5.904e-6, -3.750e-5
0.153, -5.842e-6, -3.752e-5
0.154, -5.769e-6, -3.755e-5
0.155, -5.683e-6, -3.758e-5
0.156, -5.616e-6, -3.761e-5
0.157, -5.549e-6, -3.764e-5
0.158, -5.470e-6, -3.767e-5
0.159, -5.374e-6, -3.769e-5
0.160, -5.290e-6, -3.772e-5
0.161, -5.222e-6, -3.774e-5
0.162, -5.131e-6, -3.777e-5
0.163, -5.029e-6, -3.780e-5
0.164, -4.937e-6, -3.782e-5
0.165, -4.858e-6, -3.784e-5
0.166, -4.755e-6, -3.787e-5
0.167, -4.640e-6, -3.789e-5
0.168, -4.540e-6, -3.791e-5
0.169, -4.440e-6, -3.794e-5
0.170, -4.324e-6, -3.796e-5
0.171, -4.198e-6, -3.798e-5
0.172, -4.080e-6, -3.800e-5
0.173, -3.974e-6, -3.802e-5
0.174, -3.850e-6, -3.804e-5
0.175, -3.713e-6, -3.806e-5
0.176, -3.578e-6, -3.807e-5
0.177, -3.466e-6, -3.809e-5
0.178, -3.323e-6, -3.811e-5
0.179, -3.172e-6, -3.812e-5
0.180, -3.024e-6, -3.814e-5
0.181, -2.889e-6, -3.815e-5
0.182, -2.732e-6, -3.817e-5
0.183, -2.560e-6, -3.818e-5
0.184, -2.404e-6, -3.819e-5
0.185, -2.255e-6, -3.820e-5
0.186, -2.080e-6, -3.821e-5
0.187, -1.890e-6, -3.822e-5
0.188, -1.710e-6, -3.823e-5
0.189, -1.545e-6, -3.824e-5
0.190, -1.353e-6, -3.825e-5
0.191, -1.137e-6, -3.825e-5
0.192, -9.400e-7, -3.826e-5
0.193, -7.545e-7, -3.826e-5
0.194, -5.484e-7, -3.826e-5
0.195, -3.143e-7, -3.827e-5
0.196, -9.281e-8, -3.827e-5
0.197, 1.171e-7, -3.827e-5
0.198, 3.552e-7, -3.826e-5
0.199, 6.138e-7, -3.826e-5
0.200, 8.652e-7, -3.826e-5
0.201, 1.077e-6, -3.825e-5
0.202, 1.330e-6, -3.824e-5
0.203, 1.600e-6, -3.824e-5
0.204, 1.881e-6, -3.823e-5
0.205, 2.110e-6, -3.822e-5
0.206, 2.381e-6, -3.820e-5
0.207, 2.680e-6, -3.819e-5
0.208, 2.974e-6, -3.818e-5
0.209, 3.247e-6, -3.816e-5
0.210, 3.543e-6, -3.814e-5
0.211, 3.867e-6, -3.812e-5
0.212, 4.187e-6, -3.810e-5
0.213, 4.479e-6, -3.808e-5
0.214, 4.796e-6, -3.806e-5
0.215, 5.155e-6, -3.803e-5
0.216, 5.498e-6, -3.800e-5
0.217, 5.813e-6, -3.797e-5
0.218, 6.148e-6, -3.794e-5
0.219, 6.519e-6, -3.791e-5
0.220, 6.889e-6, -3.788e-5
0.221, 7.234e-6, -3.784e-5
0.222, 7.598e-6, -3.780e-5
0.223, 7.992e-6, -3.776e-5
0.224, 8.386e-6, -3.772e-5
0.225, 8.740e-6, -3.768e-5
0.226, 9.122e-6, -3.763e-5
0.227, 9.540e-6, -3.758e-5
0.228, 9.969e-6, -3.753e-5
0.229, 1.035e-5, -3.748e-5
0.230, 1.075e-5, -3.743e-5
0.231, 1.119e-5, -3.737e-5
0.232, 1.163e-5, -3.731e-5
0.233, 1.203e-5, -3.725e-5
0.234, 1.245e-5, -3.719e-5
0.235, 1.291e-5, -3.713e-5
0.236, 1.336e-5, -3.706e-5
0.237, 1.380e-5, -3.699e-5
0.238, 1.423e-5, -3.692e-5
0.239, 1.472e-5, -3.685e-5
0.240, 1.518e-5, -3.677e-5
0.241, 1.561e-5, -3.669e-5
0.242, 1.606e-5, -3.661e-5
0.243, 1.655e-5, -3.653e-5
0.244, 1.704e-5, -3.644e-5
0.245, 1.747e-5, -3.636e-5
0.246, 1.793e-5, -3.627e-5
0.247, 1.845e-5, -3.617e-5
0.248, 1.894e-5, -3.608e-5
0.249, 1.937e-5, -3.598e-5
0.250, 1.984e-5, -3.588e-5
0.251, 2.035e-5, -3.578e-5
0.252, 2.086e-5, -3.568e-5
0.253, 2.129e-5, -3.557e-5
0.254, 2.177e-5, -3.546e-5
0.255, 2.228e-5, -3.535e-5
0.256, 2.278e-5, -3.524e-5
0.257, 2.323e-5, -3.512e-5
0.258, 2.371e-5, -3.500e-5
0.259, 2.421e-5, -3.488e-5
0.260, 2.469e-5, -3.476e-5
0.261, 2.515e-5, -3.463e-5
0.262, 2.562e-5, -3.450e-5
0.263, 2.614e-5, -3.437e-5
0.264, 2.660e-5, -3.424e-5
0.265, 2.705e-5, -3.410e-5
0.266, 2.748e-5, -3.397e-5
0.267, 2.796e-5, -3.383e-5
0.268, 2.843e-5, -3.368e-5
0.269, 2.884e-5, -3.354e-5
0.270, 2.928e-5, -3.339e-5
0.271, 2.974e-5, -3.325e-5
0.272, 3.019e-5, -3.309e-5
0.273, 3.059e-5, -3.294e-5
0.274, 3.098e-5, -3.279e-5
0.275, 3.144e-5, -3.263e-5
0.276, 3.186e-5, -3.247e-5
0.277, 3.222e-5, -3.231e-5
0.278, 3.260e-5, -3.215e-5
0.279, 3.300e-5, -3.198e-5
0.280, 3.340e-5, -3.181e-5
0.281, 3.374e-5, -3.165e-5
0.282, 3.407e-5, -3.148e-5
0.283, 3.447e-5, -3.130e-5
0.284, 3.482e-5, -3.113e-5
0.285, 3.512e-5, -3.095e-5
0.286, 3.544e-5, -3.078e-5
0.287, 3.578e-5, -3.060e-5
0.288, 3.610e-5, -3.042e-5
0.289, 3.638e-5, -3.023e-5
0.290, 3.665e-5, -3.005e-5
0.291, 3.696e-5, -2.987e-5
0.292, 3.723e-5, -2.968e-5
0.293, 3.744e-5, -2.949e-5
0.294, 3.767e-5, -2.930e-5
0.295, 3.794e-5, -2.912e-5
0.296, 3.816e-5, -2.892e-5
0.297, 3.835e-5, -2.873e-5
0.298, 3.853e-5, -2.854e-5
0.299, 3.875e-5, -2.835e-5
0.300, 3.893e-5, -2.815e-5
0.301, 3.907e-5, -2.796e-5
0.302, 3.922e-5, -2.776e-5
0.303, 3.938e-5, -2.756e-5
0.304, 3.952e-5, -2.737e-5
0.305, 3.960e-5, -2.717e-5
0.306, 3.969e-5, -2.697e-5
0.307, 3.984e-5, -2.677e-5
0.308, 3.994e-5, -2.657e-5
0.309, 3.997e-5, -2.637e-5
0.310, 4.002e-5, -2.617e-5
0.311, 4.009e-5, -2.597e-5
0.312, 4.015e-5, -2.577e-5
0.313, 4.015e-5, -2.557e-5
0.314, 4.016e-5, -2.537e-5
0.315, 4.020e-5, -2.517e-5
0.316, 4.021e-5, -2.497e-5
0.317, 4.018e-5, -2.476e-5
0.318, 4.015e-5, -2.456e-5
0.319, 4.014e-5, -2.436e-5
0.320, 4.011e-5, -2.416e-5
0.321, 4.004e-5, -2.396e-5
0.322, 3.997e-5, -2.376e-5
0.323, 3.993e-5, -2.356e-5
0.324, 3.986e-5, -2.336e-5
0.325, 3.975e-5, -2.316e-5
0.326, 3.966e-5, -2.297e-5
0.327, 3.960e-5, -2.277e-5
0.328, 3.951e-5, -2.257e-5
0.329, 3.937e-5, -2.237e-5
0.330, 3.924e-5, -2.218e-5
0.331, 3.915e-5, -2.198e-5
0.332, 3.902e-5, -2.179e-5
0.333, 3.886e-5, -2.159e-5
0.334, 3.872e-5, -2.140e-5
0.335, 3.861e-5, -2.121e-5
0.336, 3.846e-5, -2.101e-5
0.337, 3.828e-5, -2.082e-5
0.338, 3.813e-5, -2.063e-5
0.339, 3.799e-5, -2.044e-5
0.340, 3.783e-5, -2.025e-5
0.341, 3.763e-5, -2.006e-5
0.342, 3.746e-5, -1.988e-5
0.343, 3.731e-5, -1.969e-5
0.344, 3.714e-5, -1.950e-5
0.345, 3.694e-5, -1.932e-5
0.346, 3.677e-5, -1.914e-5
0.347, 3.661e-5, -1.895e-5
0.348, 3.643e-5, -1.877e-5
0.349, 3.621e-5, -1.859e-5
0.350, 3.602e-5, -1.841e-5
0.351, 3.586e-5, -1.823e-5
0.352, 3.568e-5, -1.805e-5
0.353, 3.547e-5, -1.787e-5
0.354, 3.528e-5, -1.770e-5
0.355, 3.511e-5, -1.752e-5
0.356, 3.493e-5, -1.735e-5
0.357, 3.472e-5, -1.717e-5
0.358, 3.452e-5, -1.700e-5
0.359, 3.435e-5, -1.683e-5
0.360, 3.416e-5, -1.666e-5
0.361, 3.396e-5, -1.649e-5
0.362, 3.377e-5, -1.632e-5
0.363, 3.360e-5, -1.615e-5
0.364, 3.342e-5, -1.599e-5
0.365, 3.322e-5, -1.582e-5
0.366, 3.302e-5, -1.565e-5
0.367, 3.285e-5, -1.549e-5
0.368, 3.267e-5, -1.533e-5
0.369, 3.247e-5, -1.516e-5
0.370, 3.229e-5, -1.500e-5
0.371, 3.212e-5, -1.484e-5
0.372, 3.194e-5, -1.468e-5
0.373, 3.176e-5, -1.452e-5
0.374, 3.158e-5, -1.437e-5
0.375, 3.143e-5, -1.421e-5
0.376, 3.125e-5, -1.405e-5
0.377, 3.106e-5, -1.390e-5
0.378, 3.090e-5, -1.374e-5
0.379, 3.074e-5, -1.359e-5
0.380, 3.058e-5, -1.344e-5
0.381, 3.039e-5, -1.328e-5
0.382, 3.023e-5, -1.313e-5
0.383, 3.008e-5, -1.298e-5
0.384, 2.990e-5, -1.283e-5
0.385, 2.973e-5, -1.268e-5
0.386, 2.957e-5, -1.254e-5
0.387, 2.943e-5, -1.239e-5
0.388, 2.927e-5, -1.224e-5
0.389, 2.910e-5, -1.210e-5
0.390, 2.896e-5, -1.195e-5
0.391, 2.882e-5, -1.181e-5
0.392, 2.866e-5, -1.167e-5
0.393, 2.850e-5, -1.152e-5
0.394, 2.836e-5, -1.138e-5
0.395, 2.823e-5, -1.124e-5
0.396, 2.808e-5, -1.110e-5
0.397, 2.792e-5, -1.096e-5
0.398, 2.779e-5, -1.082e-5
0.399, 2.766e-5, -1.068e-5
0.400, 2.752e-5, -1.055e-5
0.401, 2.737e-5, -1.041e-5
0.402, 2.725e-5, -1.027e-5
0.403, 2.713e-5, -1.014e-5
0.404, 2.699e-5, -1.000e-5
0.405, 2.685e-5, -9.867e-6
0.406, 2.671e-5, -9.734e-6
0.407, 2.659e-5, -9.601e-6
0.408, 2.647e-5, -9.468e-6
0.409, 2.633e-5, -9.337e-6
0.410, 2.621e-5, -9.206e-6
0.411, 2.610e-5, -9.075e-6
0.412, 2.598e-5, -8.945e-6
0.413, 2.585e-5, -8.816e-6
0.414, 2.573e-5, -8.687e-6
0.415, 2.562e-5, -8.559e-6
0.416, 2.551e-5, -8.432e-6
0.417, 2.539e-5, -8.305e-6
0.418, 2.527e-5, -8.179e-6
0.419, 2.516e-5, -8.053e-6
0.420, 2.504e-5, -7.928e-6
0.421, 2.492e-5, -7.803e-6
0.422, 2.481e-5, -7.679e-6
0.423, 2.472e-5, -7.555e-6
0.424, 2.461e-5, -7.432e-6
0.425, 2.449e-5, -7.310e-6
0.426, 2.439e-5, -7.188e-6
0.427, 2.430e-5, -7.066e-6
0.428, 2.420e-5, -6.945e-6
0.429, 2.409e-5, -6.825e-6
0.430, 2.399e-5, -6.705e-6
0.431, 2.391e-5, -6.585e-6
0.432, 2.381e-5, -6.466e-6
0.433, 2.369e-5, -6.348e-6
0.434, 2.360e-5, -6.230e-6
0.435, 2.351e-5, -6.112e-6
0.436, 2.342e-5, -5.995e-6
0.437, 2.331e-5, -5.879e-6
0.438, 2.323e-5, -5.763e-6
0.439, 2.315e-5, -5.647e-6
0.440, 2.305e-5, -5.532e-6
0.441, 2.296e-5, -5.417e-6
0.442, 2.288e-5, -5.302e-6
0.443, 2.280e-5, -5.188e-6
0.444, 2.271e-5, -5.075e-6
0.445, 2.262e-5, -4.962e-6
0.446, 2.253e-5, -4.849e-6
0.447, 2.246e-5, -4.737e-6
0.448, 2.238e-5, -4.625e-6
0.449, 2.229e-5, -4.513e-6
0.450, 2.221e-5, -4.402e-6
0.451, 2.215e-5, -4.292e-6
0.452, 2.206e-5, -4.181e-6
0.453, 2.197e-5, -4.071e-6
0.454, 2.189e-5, -3.962e-6
0.455, 2.183e-5, -3.853e-6
0.456, 2.175e-5, -3.744e-6
0.457, 2.166e-5, -3.636e-6
0.458, 2.160e-5, -3.528e-6
0.459, 2.153e-5, -3.420e-6
0.460, 2.145e-5, -3.313e-6
0.461, 2.138e-5, -3.206e-6
0.462, 2.131e-5, -3.099e-6
0.463, 2.125e-5, -2.993e-6
0.464, 2.117e-5, -2.887e-6
0.465, 2.109e-5, -2.782e-6
0.466, 2.103e-5, -2.677e-6
0.467, 2.097e-5, -2.572e-6
0.468, 2.090e-5, -2.467e-6
0.469, 2.082e-5, -2.363e-6
0.470, 2.077e-5, -2.259e-6
0.471, 2.071e-5, -2.156e-6
0.472, 2.064e-5, -2.053e-6
0.473, 2.056e-5, -1.950e-6
0.474, 2.049e-5, -1.847e-6
0.475, 2.044e-5, -1.745e-6
0.476, 2.037e-5, -1.643e-6
0.477, 2.030e-5, -1.542e-6
0.478, 2.024e-5, -1.441e-6
0.479, 2.019e-5, -1.340e-6
0.480, 2.013e-5, -1.239e-6
0.481, 2.006e-5, -1.139e-6
0.482, 2.001e-5, -1.039e-6
0.483, 1.996e-5, -9.389e-7
0.484, 1.989e-5, -8.394e-7
0.485, 1.983e-5, -7.403e-7
0.486, 1.977e-5, -6.414e-7
0.487, 1.973e-5, -5.428e-7
0.488, 1.967e-5, -4.445e-7
0.489, 1.960e-5, -3.465e-7
0.490, 1.955e-5, -2.487e-7
0.491, 1.951e-5, -1.512e-7
0.492, 1.945e-5, -5.394e-8
0.493, 1.938e-5, 4.297e-8
0.494, 1.934e-5, 1.397e-7
0.495, 1.929e-5, 2.361e-7
0.496, 1.924e-5, 3.323e-7
0.497, 1.918e-5, 4.282e-7
0.498, 1.913e-5, 5.238e-7
0.499, 1.909e-5, 6.193e-7
0.500, 1.892e-5, 7.139e-7

Segment 3:
0.499, 1.853e-5, 8.065e-7
0.498, 1.839e-5, 8.985e-7
0.497, 1.828e-5, 9.899e-7
0.496, 1.818e-5, 1.081e-6
0.495, 1.808e-5, 1.171e-6
0.494, 1.799e-5, 1.261e-6
0.493, 1.791e-5, 1.351e-6
0.492, 1.783e-5, 1.440e-6
0.491, 1.775e-5, 1.529e-6
0.490, 1.768e-5, 1.617e-6
0.489, 1.761e-5, 1.705e-6
0.488, 1.754e-5, 1.793e-6
0.487, 1.746e-5, 1.880e-6
0.486, 1.738e-5, 1.967e-6
0.485, 1.733e-5, 2.054e-6
0.484, 1.725e-5, 2.140e-6
0.483, 1.718e-5, 2.226e-6
0.482, 1.712e-5, 2.311e-6
0.481, 1.707e-5, 2.397e-6
0.480, 1.700e-5, 2.482e-6
0.479, 1.693e-5, 2.566e-6
0.478, 1.688e-5, 2.651e-6
0.477, 1.683e-5, 2.735e-6
0.476, 1.676e-5, 2.819e-6
0.475, 1.670e-5, 2.902e-6
0.474, 1.665e-5, 2.985e-6
0.473, 1.660e-5, 3.068e-6
0.472, 1.654e-5, 3.151e-6
0.471, 1.647e-5, 3.233e-6
0.470, 1.643e-5, 3.316e-6
0.469, 1.638e-5, 3.398e-6
0.468, 1.632e-5, 3.479e-6
0.467, 1.626e-5, 3.560e-6
0.466, 1.621e-5, 3.641e-6
0.465, 1.617e-5, 3.722e-6
0.464, 1.611e-5, 3.803e-6
0.463, 1.605e-5, 3.883e-6
0.462, 1.601e-5, 3.963e-6
0.461, 1.596e-5, 4.043e-6
0.460, 1.590e-5, 4.122e-6
0.459, 1.585e-5, 4.202e-6
0.458, 1.579e-5, 4.281e-6
0.457, 1.576e-5, 4.360e-6
0.456, 1.571e-5, 4.438e-6
0.455, 1.565e-5, 4.516e-6
0.454, 1.559e-5, 4.594e-6
0.453, 1.556e-5, 4.672e-6
0.452, 1.551e-5, 4.750e-6
0.451, 1.545e-5, 4.827e-6
0.450, 1.541e-5, 4.904e-6
0.449, 1.537e-5, 4.981e-6
0.448, 1.532e-5, 5.057e-6
0.447, 1.527e-5, 5.134e-6
0.446, 1.522e-5, 5.210e-6
0.445, 1.519e-5, 5.286e-6
0.444, 1.514e-5, 5.361e-6
0.443, 1.508e-5, 5.437e-6
0.442, 1.504e-5, 5.512e-6
0.441, 1.500e-5, 5.587e-6
0.440, 1.495e-5, 5.662e-6
0.439, 1.490e-5, 5.736e-6
0.438, 1.485e-5, 5.810e-6
0.437, 1.482e-5, 5.885e-6
0.436, 1.476e-5, 5.958e-6
0.435, 1.471e-5, 6.032e-6
0.434, 1.467e-5, 6.105e-6
0.433, 1.464e-5, 6.178e-6
0.432, 1.459e-5, 6.251e-6
0.431, 1.453e-5, 6.324e-6
0.430, 1.449e-5, 6.397e-6
0.429, 1.445e-5, 6.469e-6
0.428, 1.441e-5, 6.541e-6
0.427, 1.436e-5, 6.613e-6
0.426, 1.431e-5, 6.684e-6
0.425, 1.426e-5, 6.755e-6
0.424, 1.421e-5, 6.827e-6
0.423, 1.416e-5, 6.897e-6
0.422, 1.412e-5, 6.968e-6
0.421, 1.408e-5, 7.038e-6
0.420, 1.402e-5, 7.108e-6
0.419, 1.397e-5, 7.178e-6
0.418, 1.393e-5, 7.248e-6
0.417, 1.389e-5, 7.317e-6
0.416, 1.384e-5, 7.387e-6
0.415, 1.379e-5, 7.456e-6
0.414, 1.374e-5, 7.524e-6
0.413, 1.371e-5, 7.593e-6
0.412, 1.366e-5, 7.661e-6
0.411, 1.360e-5, 7.729e-6
0.410, 1.355e-5, 7.797e-6
0.409, 1.352e-5, 7.864e-6
0.408, 1.347e-5, 7.932e-6
0.407, 1.340e-5, 7.999e-6
0.406, 1.336e-5, 8.066e-6
0.405, 1.332e-5, 8.132e-6
0.404, 1.327e-5, 8.199e-6
0.403, 1.320e-5, 8.265e-6
0.402, 1.315e-5, 8.330e-6
0.401, 1.312e-5, 8.396e-6
0.400, 1.306e-5, 8.461e-6
0.399, 1.300e-5, 8.526e-6
0.398, 1.295e-5, 8.591e-6
0.397, 1.291e-5, 8.656e-6
0.396, 1.285e-5, 8.720e-6
0.395, 1.279e-5, 8.784e-6
0.394, 1.273e-5, 8.847e-6
0.393, 1.268e-5, 8.911e-6
0.392, 1.263e-5, 8.974e-6
0.391, 1.256e-5, 9.037e-6
0.390, 1.249e-5, 9.099e-6
0.389, 1.245e-5, 9.161e-6
0.388, 1.238e-5, 9.223e-6
0.387, 1.231e-5, 9.285e-6
0.386, 1.225e-5, 9.346e-6
0.385, 1.220e-5, 9.407e-6
0.384, 1.214e-5, 9.468e-6
0.383, 1.206e-5, 9.528e-6
0.382, 1.200e-5, 9.588e-6
0.381, 1.194e-5, 9.648e-6
0.380, 1.187e-5, 9.707e-6
0.379, 1.180e-5, 9.766e-6
0.378, 1.172e-5, 9.825e-6
0.377, 1.166e-5, 9.883e-6
0.376, 1.159e-5, 9.941e-6
0.375, 1.150e-5, 9.999e-6
0.374, 1.143e-5, 1.006e-5
0.373, 1.137e-5, 1.011e-5
0.372, 1.128e-5, 1.017e-5
0.371, 1.118e-5, 1.022e-5
0.370, 1.110e-5, 1.028e-5
0.369, 1.103e-5, 1.034e-5
0.368, 1.094e-5, 1.039e-5
0.367, 1.084e-5, 1.044e-5
0.366, 1.075e-5, 1.050e-5
0.365, 1.067e-5, 1.055e-5
0.364, 1.059e-5, 1.060e-5
0.363, 1.047e-5, 1.066e-5
0.362, 1.038e-5, 1.071e-5
0.361, 1.029e-5, 1.076e-5
0.360, 1.019e-5, 1.081e-5
0.359, 1.006e-5, 1.086e-5
0.358, 9.960e-6, 1.091e-5
0.357, 9.868e-6, 1.096e-5
0.356, 9.756e-6, 1.101e-5
0.355, 9.630e-6, 1.106e-5
0.354, 9.510e-6, 1.111e-5
0.353, 9.402e-6, 1.115e-5
0.352, 9.280e-6, 1.120e-5
0.351, 9.135e-6, 1.124e-5
0.350, 9.015e-6, 1.129e-5
0.349, 8.895e-6, 1.133e-5
0.348, 8.762e-6, 1.138e-5
0.347, 8.610e-6, 1.142e-5
0.346, 8.467e-6, 1.146e-5
0.345, 8.334e-6, 1.150e-5
0.344, 8.193e-6, 1.155e-5
0.343, 8.012e-6, 1.159e-5
0.342, 7.850e-6, 1.162e-5
0.341, 7.709e-6, 1.166e-5
0.340, 7.543e-6, 1.170e-5
0.339, 7.358e-6, 1.174e-5
0.338, 7.195e-6, 1.177e-5
0.337, 7.035e-6, 1.181e-5
0.336, 6.850e-6, 1.184e-5
0.335, 6.645e-6, 1.188e-5
0.334, 6.455e-6, 1.191e-5
0.333, 6.296e-6, 1.194e-5
0.332, 6.094e-6, 1.197e-5
0.331, 5.873e-6, 1.200e-5
0.330, 5.668e-6, 1.203e-5
0.329, 5.474e-6, 1.206e-5
0.328, 5.261e-6, 1.208e-5
0.327, 5.010e-6, 1.211e-5
0.326, 4.773e-6, 1.213e-5
0.325, 4.560e-6, 1.215e-5
0.324, 4.333e-6, 1.218e-5
0.323, 4.063e-6, 1.220e-5
0.322, 3.812e-6, 1.221e-5
0.321, 3.590e-6, 1.223e-5
0.320, 3.328e-6, 1.225e-5
0.319, 3.039e-6, 1.226e-5
0.318, 2.770e-6, 1.228e-5
0.317, 2.521e-6, 1.229e-5
0.316, 2.238e-6, 1.230e-5
0.315, 1.928e-6, 1.231e-5
0.314, 1.622e-6, 1.232e-5
0.313, 1.351e-6, 1.233e-5
0.312, 1.046e-6, 1.233e-5
0.311, 7.095e-7, 1.234e-5
0.310, 3.892e-7, 1.234e-5
0.309, 8.572e-8, 1.234e-5
0.308, -2.443e-7, 1.234e-5
0.307, -6.199e-7, 1.233e-5
0.306, -9.582e-7, 1.233e-5
0.305, -1.275e-6, 1.232e-5
0.304, -1.630e-6, 1.231e-5
0.303, -2.019e-6, 1.230e-5
0.302, -2.386e-6, 1.229e-5
0.301, -2.708e-6, 1.228e-5
0.300, -3.096e-6, 1.226e-5
0.299, -3.496e-6, 1.225e-5
0.298, -3.887e-6, 1.223e-5
0.297, -4.239e-6, 1.221e-5
0.296, -4.634e-6, 1.218e-5
0.295, -5.076e-6, 1.216e-5
0.294, -5.488e-6, 1.213e-5
0.293, -5.865e-6, 1.210e-5
0.292, -6.258e-6, 1.207e-5
0.291, -6.728e-6, 1.203e-5
0.290, -7.166e-6, 1.200e-5
0.289, -7.551e-6, 1.196e-5
0.288, -7.980e-6, 1.192e-5
0.287, -8.471e-6, 1.188e-5
0.286, -8.915e-6, 1.183e-5
0.285, -9.327e-6, 1.179e-5
0.284, -9.778e-6, 1.174e-5
0.283, -1.025e-5, 1.169e-5
0.282, -1.073e-5, 1.163e-5
0.281, -1.116e-5, 1.158e-5
0.280, -1.161e-5, 1.152e-5
0.279, -1.211e-5, 1.146e-5
0.278, -1.260e-5, 1.140e-5
0.277, -1.303e-5, 1.133e-5
0.276, -1.350e-5, 1.126e-5
0.275, -1.403e-5, 1.119e-5
0.274, -1.451e-5, 1.112e-5
0.273, -1.495e-5, 1.105e-5
0.272, -1.542e-5, 1.097e-5
0.271, -1.595e-5, 1.089e-5
0.270, -1.642e-5, 1.081e-5
0.269, -1.686e-5, 1.072e-5
0.268, -1.735e-5, 1.064e-5
0.267, -1.787e-5, 1.055e-5
0.266, -1.837e-5, 1.046e-5
0.265, -1.880e-5, 1.036e-5
0.264, -1.928e-5, 1.026e-5
0.263, -1.979e-5, 1.017e-5
0.262, -2.028e-5, 1.006e-5
0.261, -2.071e-5, 9.961e-6
0.260, -2.119e-5, 9.855e-6
0.259, -2.169e-5, 9.747e-6
0.258, -2.217e-5, 9.636e-6
0.257, -2.259e-5, 9.523e-6
0.256, -2.305e-5, 9.408e-6
0.255, -2.357e-5, 9.290e-6
0.254, -2.403e-5, 9.170e-6
0.253, -2.443e-5, 9.047e-6
0.252, -2.487e-5, 8.923e-6
0.251, -2.537e-5, 8.796e-6
0.250, -2.580e-5, 8.667e-6
0.249, -2.619e-5, 8.536e-6
0.248, -2.661e-5, 8.403e-6
0.247, -2.707e-5, 8.268e-6
0.246, -2.749e-5, 8.130e-6
0.245, -2.785e-5, 7.991e-6
0.244, -2.824e-5, 7.850e-6
0.243, -2.868e-5, 7.707e-6
0.242, -2.907e-5, 7.561e-6
0.241, -2.939e-5, 7.414e-6
0.240, -2.976e-5, 7.266e-6
0.239, -3.016e-5, 7.115e-6
0.238, -3.051e-5, 6.962e-6
0.237, -3.081e-5, 6.808e-6
0.236, -3.112e-5, 6.653e-6
0.235, -3.149e-5, 6.495e-6
0.234, -3.180e-5, 6.336e-6
0.233, -3.206e-5, 6.176e-6
0.232, -3.233e-5, 6.014e-6
0.231, -3.267e-5, 5.851e-6
0.230, -3.294e-5, 5.686e-6
0.229, -3.317e-5, 5.520e-6
0.228, -3.340e-5, 5.353e-6
0.227, -3.370e-5, 5.185e-6
0.226, -3.393e-5, 5.015e-6
0.225, -3.411e-5, 4.845e-6
0.224, -3.431e-5, 4.673e-6
0.223, -3.455e-5, 4.500e-6
0.222, -3.473e-5, 4.327e-6
0.221, -3.486e-5, 4.152e-6
0.220, -3.502e-5, 3.977e-6
0.219, -3.521e-5, 3.801e-6
0.218, -3.536e-5, 3.624e-6
0.217, -3.544e-5, 3.447e-6
0.216, -3.556e-5, 3.269e-6
0.215, -3.570e-5, 3.091e-6
0.214, -3.582e-5, 2.912e-6
0.213, -3.586e-5, 2.732e-6
0.212, -3.593e-5, 2.553e-6
0.211, -3.603e-5, 2.373e-6
0.210, -3.608e-5, 2.192e-6
0.209, -3.609e-5, 2.012e-6
0.208, -3.612e-5, 1.831e-6
0.207, -3.618e-5, 1.650e-6
0.206, -3.618e-5, 1.469e-6
0.205, -3.615e-5, 1.289e-6
0.204, -3.612e-5, 1.108e-6
0.203, -3.614e-5, 9.273e-7
0.202, -3.612e-5, 7.467e-7
0.201, -3.606e-5, 5.665e-7
0.200, -3.601e-5, 3.864e-7
0.199, -3.601e-5, 2.063e-7
0.198, -3.595e-5, 2.658e-8
0.197, -3.585e-5, -1.527e-7
0.196, -3.577e-5, -3.315e-7
0.195, -3.571e-5, -5.100e-7
0.194, -3.561e-5, -6.881e-7
0.193, -3.548e-5, -8.655e-7
0.192, -3.538e-5, -1.042e-6
0.191, -3.530e-5, -1.219e-6
0.190, -3.519e-5, -1.395e-6
0.189, -3.504e-5, -1.570e-6
0.188, -3.491e-5, -1.745e-6
0.187, -3.482e-5, -1.919e-6
0.186, -3.467e-5, -2.092e-6
0.185, -3.451e-5, -2.265e-6
0.184, -3.436e-5, -2.436e-6
0.183, -3.423e-5, -2.608e-6
0.182, -3.408e-5, -2.778e-6
0.181, -3.390e-5, -2.947e-6
0.180, -3.375e-5, -3.116e-6
0.179, -3.361e-5, -3.284e-6
0.178, -3.344e-5, -3.451e-6
0.177, -3.325e-5, -3.618e-6
0.176, -3.309e-5, -3.783e-6
0.175, -3.293e-5, -3.948e-6
0.174, -3.276e-5, -4.112e-6
0.173, -3.256e-5, -4.274e-6
0.172, -3.238e-5, -4.436e-6
0.171, -3.222e-5, -4.597e-6
0.170, -3.204e-5, -4.758e-6
0.169, -3.184e-5, -4.917e-6
0.168, -3.167e-5, -5.075e-6
0.167, -3.151e-5, -5.233e-6
0.166, -3.133e-5, -5.389e-6
0.165, -3.112e-5, -5.545e-6
0.164, -3.095e-5, -5.700e-6
0.163, -3.079e-5, -5.854e-6
0.162, -3.061e-5, -6.007e-6
0.161, -3.040e-5, -6.159e-6
0.160, -3.023e-5, -6.310e-6
0.159, -3.007e-5, -6.460e-6
0.158, -2.989e-5, -6.610e-6
0.157, -2.969e-5, -6.758e-6
0.156, -2.951e-5, -6.906e-6
0.155, -2.934e-5, -7.052e-6
0.154, -2.916e-5, -7.198e-6
0.153, -2.897e-5, -7.343e-6
0.152, -2.879e-5, -7.487e-6
0.151, -2.864e-5, -7.630e-6
0.150, -2.846e-5, -7.772e-6
0.149, -2.828e-5, -7.914e-6
0.148, -2.811e-5, -8.054e-6
0.147, -2.796e-5, -8.194e-6
0.146, -2.778e-5, -8.333e-6
0.145, -2.760e-5, -8.471e-6
0.144, -2.744e-5, -8.608e-6
0.143, -2.729e-5, -8.745e-6
0.142, -2.712e-5, -8.880e-6
0.141, -2.695e-5, -9.015e-6
0.140, -2.679e-5, -9.149e-6
0.139, -2.665e-5, -9.282e-6
0.138, -2.649e-5, -9.415e-6
0.137, -2.631e-5, -9.546e-6
0.136, -2.616e-5, -9.677e-6
0.135, -2.602e-5, -9.807e-6
0.134, -2.586e-5, -9.937e-6
0.133, -2.571e-5, -1.007e-5
0.132, -2.556e-5, -1.019e-5
0.131, -2.543e-5, -1.032e-5
0.130, -2.528e-5, -1.045e-5
0.129, -2.513e-5, -1.057e-5
0.128, -2.499e-5, -1.070e-5
0.127, -2.485e-5, -1.082e-5
0.126, -2.469e-5, -1.094e-5
0.125, -2.454e-5, -1.107e-5
0.124, -2.442e-5, -1.119e-5
0.123, -2.429e-5, -1.131e-5
0.122, -2.415e-5, -1.143e-5
0.121, -2.401e-5, -1.155e-5
0.120, -2.388e-5, -1.167e-5
0.119, -2.376e-5, -1.179e-5
0.118, -2.364e-5, -1.191e-5
0.117, -2.350e-5, -1.203e-5
0.116, -2.338e-5, -1.214e-5
0.115, -2.327e-5, -1.226e-5
0.114, -2.313e-5, -1.237e-5
0.113, -2.300e-5, -1.249e-5
0.112, -2.289e-5, -1.260e-5
0.111, -2.278e-5, -1.272e-5
0.110, -2.266e-5, -1.283e-5
0.109, -2.254e-5, -1.294e-5
0.108, -2.243e-5, -1.306e-5
0.107, -2.232e-5, -1.317e-5
0.106, -2.221e-5, -1.328e-5
0.105, -2.209e-5, -1.339e-5
0.104, -2.199e-5, -1.350e-5
0.103, -2.189e-5, -1.361e-5
0.102, -2.178e-5, -1.372e-5
0.101, -2.166e-5, -1.383e-5
0.100, -2.157e-5, -1.393e-5
0.099, -2.147e-5, -1.404e-5
0.098, -2.136e-5, -1.415e-5
0.097, -2.126e-5, -1.425e-5
0.096, -2.116e-5, -1.436e-5
0.095, -2.107e-5, -1.447e-5
0.094, -2.097e-5, -1.457e-5
0.093, -2.087e-5, -1.467e-5
0.092, -2.078e-5, -1.478e-5
0.091, -2.069e-5, -1.488e-5
0.090, -2.059e-5, -1.498e-5
0.089, -2.049e-5, -1.509e-5
0.088, -2.041e-5, -1.519e-5
0.087, -2.033e-5, -1.529e-5
0.086, -2.023e-5, -1.539e-5
0.085, -2.014e-5, -1.549e-5
0.084, -2.004e-5, -1.559e-5
0.083, -1.997e-5, -1.569e-5
0.082, -1.988e-5, -1.579e-5
0.081, -1.978e-5, -1.589e-5
0.080, -1.971e-5, -1.599e-5
0.079, -1.963e-5, -1.609e-5
0.078, -1.955e-5, -1.619e-5
0.077, -1.946e-5, -1.628e-5
0.076, -1.938e-5, -1.638e-5
0.075, -1.930e-5, -1.648e-5
0.074, -1.922e-5, -1.657e-5
0.073, -1.914e-5, -1.667e-5
0.072, -1.907e-5, -1.676e-5
0.071, -1.900e-5, -1.686e-5
0.070, -1.892e-5, -1.695e-5
0.069, -1.884e-5, -1.705e-5
0.068, -1.878e-5, -1.714e-5
0.067, -1.870e-5, -1.723e-5
0.066, -1.863e-5, -1.733e-5
0.065, -1.855e-5, -1.742e-5
0.064, -1.849e-5, -1.751e-5
0.063, -1.842e-5, -1.760e-5
0.062, -1.835e-5, -1.770e-5
0.061, -1.828e-5, -1.779e-5
0.060, -1.821e-5, -1.788e-5
0.059, -1.815e-5, -1.797e-5
0.058, -1.808e-5, -1.806e-5
0.057, -1.801e-5, -1.815e-5
0.056, -1.795e-5, -1.824e-5
0.055, -1.789e-5, -1.833e-5
0.054, -1.782e-5, -1.842e-5
0.053, -1.776e-5, -1.851e-5
0.052, -1.769e-5, -1.860e-5
0.051, -1.763e-5, -1.868e-5
0.050, -1.757e-5, -1.877e-5
0.049, -1.751e-5, -1.886e-5
0.048, -1.745e-5, -1.895e-5
0.047, -1.739e-5, -1.903e-5
0.046, -1.733e-5, -1.912e-5
0.045, -1.727e-5, -1.921e-5
0.044, -1.721e-5, -1.929e-5
0.043, -1.716e-5, -1.938e-5
0.042, -1.710e-5, -1.946e-5
0.041, -1.703e-5, -1.955e-5
0.040, -1.698e-5, -1.963e-5
0.039, -1.692e-5, -1.972e-5
0.038, -1.686e-5, -1.980e-5
0.037, -1.680e-5, -1.989e-5
0.036, -1.675e-5, -1.997e-5
0.035, -1.670e-5, -2.005e-5
0.034, -1.664e-5, -2.014e-5
0.033, -1.659e-5, -2.022e-5
0.032, -1.654e-5, -2.030e-5
0.031, -1.649e-5, -2.039e-5
0.030, -1.643e-5, -2.047e-5
0.029, -1.638e-5, -2.055e-5
0.028, -1.633e-5, -2.063e-5
0.027, -1.629e-5, -2.071e-5
0.026, -1.623e-5, -2.079e-5
0.025, -1.618e-5, -2.087e-5
0.024, -1.613e-5, -2.096e-5
0.023, -1.609e-5, -2.104e-5
0.022, -1.604e-5, -2.112e-5
0.021, -1.599e-5, -2.120e-5
0.020, -1.594e-5, -2.128e-5
0.019, -1.590e-5, -2.136e-5
0.018, -1.585e-5, -2.143e-5
0.017, -1.580e-5, -2.151e-5
0.016, -1.576e-5, -2.159e-5
0.015, -1.571e-5, -2.167e-5
0.014, -1.567e-5, -2.175e-5
0.013, -1.562e-5, -2.183e-5
0.012, -1.558e-5, -2.191e-5
0.011, -1.553e-5, -2.198e-5
0.010, -1.549e-5, -2.206e-5
0.009, -1.544e-5, -2.214e-5
0.008, -1.540e-5, -2.221e-5
0.007, -1.536e-5, -2.229e-5
0.006, -1.531e-5, -2.237e-5
0.005, -1.527e-5, -2.244e-5
0.004, -1.523e-5, -2.252e-5
0.003, -1.518e-5, -2.260e-5
0.002, -1.515e-5, -2.267e-5
0.001, -1.510e-5, -2.275e-5
0.000, -1.507e-5, -2.282e-5
-0.001, -1.503e-5, -2.290e-5
-0.002, -1.498e-5, -2.297e-5
-0.003, -1.494e-5, -2.305e-5
-0.004, -1.491e-5, -2.312e-5
-0.005, -1.487e-5, -2.320e-5
-0.006, -1.483e-5, -2.327e-5
-0.007, -1.479e-5, -2.334e-5
-0.008, -1.475e-5, -2.342e-5
-0.009, -1.472e-5, -2.349e-5
-0.010, -1.468e-5, -2.357e-5
-0.011, -1.464e-5, -2.364e-5
-0.012, -1.460e-5, -2.371e-5
-0.013, -1.457e-5, -2.378e-5
-0.014, -1.453e-5, -2.386e-5
-0.015, -1.449e-5, -2.393e-5
-0.016, -1.445e-5, -2.400e-5
-0.017, -1.442e-5, -2.407e-5
-0.018, -1.439e-5, -2.415e-5
-0.019, -1.435e-5, -2.422e-5
-0.020, -1.431e-5, -2.429e-5
-0.021, -1.428e-5, -2.436e-5
-0.022, -1.425e-5, -2.443e-5
-0.023, -1.421e-5, -2.450e-5
-0.024, -1.418e-5, -2.457e-5
-0.025, -1.415e-5, -2.464e-5
-0.026, -1.411e-5, -2.472e-5
-0.027, -1.407e-5, -2.479e-5
-0.028, -1.405e-5, -2.486e-5
-0.029, -1.401e-5, -2.493e-5
-0.030, -1.398e-5, -2.500e-5
-0.031, -1.394e-5, -2.507e-5
-0.032, -1.391e-5, -2.513e-5
-0.033, -1.389e-5, -2.520e-5
-0.034, -1.385e-5, -2.527e-5
-0.035, -1.380e-5, -2.534e-5
-0.036, -1.377e-5, -2.541e-5
-0.037, -1.375e-5, -2.548e-5
-0.038, -1.371e-5, -2.555e-5
-0.039, -1.368e-5, -2.562e-5
-0.040, -1.366e-5, -2.569e-5
-0.041, -1.362e-5, -2.575e-5
-0.042, -1.359e-5, -2.582e-5
-0.043, -1.356e-5, -2.589e-5
-0.044, -1.353e-5, -2.596e-5
-0.045, -1.351e-5, -2.602e-5
-0.046, -1.347e-5, -2.609e-5
-0.047, -1.344e-5, -2.616e-5
-0.048, -1.342e-5, -2.623e-5
-0.049, -1.339e-5, -2.629e-5
-0.050, -1.326e-5, -2.636e-5

Segment 4:
-0.049, -1.299e-5, -2.642e-5
-0.048, -1.292e-5, -2.649e-5
-0.047, -1.286e-5, -2.655e-5
-0.046, -1.280e-5, -2.662e-5
-0.045, -1.275e-5, -2.668e-5
-0.044, -1.271e-5, -2.674e-5
-0.043, -1.267e-5, -2.681e-5
-0.042, -1.262e-5, -2.687e-5
-0.041, -1.258e-5, -2.693e-5
-0.040, -1.254e-5, -2.700e-5
-0.039, -1.250e-5, -2.706e-5
-0.038, -1.245e-5, -2.712e-5
-0.037, -1.241e-5, -2.718e-5
-0.036, -1.238e-5, -2.725e-5
-0.035, -1.235e-5, -2.731e-5
-0.034, -1.231e-5, -2.737e-5
-0.033, -1.227e-5, -2.743e-5
-0.032, -1.223e-5, -2.749e-5
-0.031, -1.220e-5, -2.755e-5
-0.030, -1.216e-5, -2.761e-5
-0.029, -1.213e-5, -2.767e-5
-0.028, -1.210e-5, -2.773e-5
-0.027, -1.206e-5, -2.779e-5
-0.026, -1.203e-5, -2.785e-5
-0.025, -1.200e-5, -2.791e-5
-0.024, -1.196e-5, -2.797e-5
-0.023, -1.194e-5, -2.803e-5
-0.022, -1.190e-5, -2.809e-5
-0.021, -1.187e-5, -2.815e-5
-0.020, -1.185e-5, -2.821e-5
-0.019, -1.181e-5, -2.827e-5
-0.018, -1.178e-5, -2.833e-5
-0.017, -1.175e-5, -2.839e-5
-0.016, -1.172e-5, -2.845e-5
-0.015, -1.170e-5, -2.851e-5
-0.014, -1.166e-5, -2.856e-5
-0.013, -1.162e-5, -2.862e-5
-0.012, -1.160e-5, -2.868e-5
-0.011, -1.157e-5, -2.874e-5
-0.010, -1.154e-5, -2.880e-5
-0.009, -1.151e-5, -2.885e-5
-0.008, -1.148e-5, -2.891e-5
-0.007, -1.146e-5, -2.897e-5
-0.006, -1.143e-5, -2.903e-5
-0.005, -1.140e-5, -2.908e-5
-0.004, -1.137e-5, -2.914e-5
-0.003, -1.135e-5, -2.920e-5
-0.002, -1.132e-5, -2.925e-5
-0.001, -1.129e-5, -2.931e-5
-0.000, -1.126e-5, -2.937e-5
0.001, -1.124e-5, -2.942e-5
0.002, -1.121e-5, -2.948e-5
0.003, -1.118e-5, -2.953e-5
0.004, -1.117e-5, -2.959e-5
0.005, -1.114e-5, -2.964e-5
0.006, -1.111e-5, -2.970e-5
0.007, -1.108e-5, -2.976e-5
0.008, -1.106e-5, -2.981e-5
0.009, -1.103e-5, -2.987e-5
0.010, -1.101e-5, -2.992e-5
0.011, -1.098e-5, -2.998e-5
0.012, -1.096e-5, -3.003e-5
0.013, -1.093e-5, -3.009e-5
0.014, -1.091e-5, -3.014e-5
0.015, -1.088e-5, -3.019e-5
0.016, -1.085e-5, -3.025e-5
0.017, -1.083e-5, -3.030e-5
0.018, -1.081e-5, -3.036e-5
0.019, -1.078e-5, -3.041e-5
0.020, -1.076e-5, -3.046e-5
0.021, -1.073e-5, -3.052e-5
0.022, -1.070e-5, -3.057e-5
0.023, -1.067e-5, -3.063e-5
0.024, -1.065e-5, -3.068e-5
0.025, -1.063e-5, -3.073e-5
0.026, -1.060e-5, -3.078e-5
0.027, -1.058e-5, -3.084e-5
0.028, -1.055e-5, -3.089e-5
0.029, -1.053e-5, -3.094e-5
0.030, -1.051e-5, -3.100e-5
0.031, -1.048e-5, -3.105e-5
0.032, -1.046e-5, -3.110e-5
0.033, -1.044e-5, -3.115e-5
0.034, -1.041e-5, -3.120e-5
